timestamp,uV
1651668596000.0,-1400.0
1651668596000.002,-5592.0
1651668596000.004,-9844.0
1651668596000.0059,-11552.0
1651668596000.0078,-10375.0
1651668596000.0098,-7189.0
1651668596000.0117,-3223.0
1651668596000.0137,-357.0
1651668596000.0156,-582.0
1651668596000.0176,-4027.0
1651668596000.0195,-8509.0
1651668596000.0215,-11174.0
1651668596000.0234,-11078.0
1651668596000.0254,-8454.0
1651668596000.0273,-4495.0
1651668596000.0293,-1028.0
1651668596000.0312,17.0
1651668596000.0332,-2519.0
1651668596000.0352,-7036.0
1651668596000.037,-10569.0
1651668596000.039,-11447.0
1651668596000.041,-9556.0
1651668596000.043,-5836.0
1651668596000.045,-2062.0
1651668596000.0469,-116.0
1651668596000.0488,-1451.0
1651668596000.0508,-5603.0
1651668596000.0527,-9763.0
1651668596000.0547,-11531.0
1651668596000.0566,-10433.0
1651668596000.0586,-7163.0
1651668596000.0605,-3149.0
1651668596000.0625,-284.0
1651668596000.0645,-534.0
1651668596000.0664,-4001.0
1651668596000.0684,-8508.0
1651668596000.0703,-11193.0
1651668596000.0723,-11076.0
1651668596000.0742,-8407.0
1651668596000.0762,-4415.0
1651668596000.0781,-964.0
1651668596000.08,-43.0
1651668596000.082,-2475.0
1651668596000.084,-6991.0
1651668596000.086,-10568.0
1651668596000.088,-11440.0
1651668596000.0898,-9516.0
1651668596000.0918,-5815.0
1651668596000.0938,-1992.0
1651668596000.0957,13.0
1651668596000.0977,-1292.0
1651668596000.0996,-5441.0
1651668596000.1016,-9661.0
1651668596000.1035,-11462.0
1651668596000.1055,-10380.0
1651668596000.1074,-7144.0
1651668596000.1094,-3166.0
1651668596000.1113,-293.0
1651668596000.1133,-502.0
1651668596000.1152,-3936.0
1651668596000.1172,-8417.0
1651668596000.1191,-11094.0
1651668596000.121,-10994.0
1651668596000.123,-8371.0
1651668596000.125,-4420.0
1651668596000.127,-997.0
1651668596000.129,-94.0
1651668596000.1309,-2515.0
1651668596000.1328,-6999.0
1651668596000.1348,-10539.0
1651668596000.1367,-11349.0
1651668596000.1387,-9503.0
1651668596000.1406,-5766.0
1651668596000.1426,-1934.0
1651668596000.1445,68.0
1651668596000.1465,-1238.0
1651668596000.1484,-5394.0
1651668596000.1504,-9599.0
1651668596000.1523,-11418.0
1651668596000.1543,-10452.0
1651668596000.1562,-7155.0
1651668596000.1582,-3122.0
1651668596000.1602,-238.0
1651668596000.162,-472.0
1651668596000.164,-3946.0
1651668596000.166,-8391.0
1651668596000.168,-11056.0
1651668596000.17,-10973.0
1651668596000.1719,-8365.0
1651668596000.1738,-4408.0
1651668596000.1758,-943.0
1651668596000.1777,13.0
1651668596000.1797,-2464.0
1651668596000.1816,-6930.0
1651668596000.1836,-10509.0
1651668596000.1855,-11377.0
1651668596000.1875,-9435.0
1651668596000.1895,-5698.0
1651668596000.1914,-1872.0
1651668596000.1934,130.0
1651668596000.1953,-1166.0
1651668596000.1973,-5306.0
1651668596000.1992,-9533.0
1651668596000.2012,-11362.0
1651668596000.2031,-10324.0
1651668596000.205,-7113.0
1651668596000.207,-3142.0
1651668596000.209,-225.0
1651668596000.211,-403.0
1651668596000.213,-3841.0
1651668596000.2148,-8348.0
1651668596000.2168,-11096.0
1651668596000.2188,-11068.0
1651668596000.2207,-8447.0
1651668596000.2227,-4442.0
1651668596000.2246,-925.0
1651668596000.2266,84.0
1651668596000.2285,-2384.0
1651668596000.2305,-6860.0
1651668596000.2324,-10437.0
1651668596000.2344,-11316.0
1651668596000.2363,-9397.0
1651668596000.2383,-5715.0
1651668596000.2402,-1909.0
1651668596000.2422,119.0
1651668596000.2441,-1152.0
1651668596000.246,-5285.0
1651668596000.248,-9526.0
1651668596000.25,-11384.0
1651668596000.252,-10353.0
1651668596000.254,-7112.0
1651668596000.2559,-3113.0
1651668596000.2578,-195.0
1651668596000.2598,-302.0
1651668596000.2617,-3644.0
1651668596000.2637,-8089.0
1651668596000.2656,-10810.0
1651668596000.2676,-10777.0
1651668596000.2695,-8172.0
1651668596000.2715,-4174.0
1651668596000.2734,-663.0
1651668596000.2754,361.0
1651668596000.2773,-2095.0
1651668596000.2793,-6591.0
1651668596000.2812,-10234.0
1651668596000.2832,-11173.0
1651668596000.2852,-9288.0
1651668596000.287,-5581.0
1651668596000.289,-1759.0
1651668596000.291,276.0
1651668596000.293,-984.0
1651668596000.295,-5108.0
1651668596000.2969,-9366.0
1651668596000.2988,-11246.0
1651668596000.3008,-10251.0
1651668596000.3027,-7049.0
1651668596000.3047,-3061.0
1651668596000.3066,-125.0
1651668596000.3086,-246.0
1651668596000.3105,-3629.0
1651668596000.3125,-8136.0
1651668596000.3145,-10910.0
1651668596000.3164,-10905.0
1651668596000.3184,-8329.0
1651668596000.3203,-4341.0
1651668596000.3223,-779.0
1651668596000.3242,292.0
1651668596000.3262,-2116.0
1651668596000.3281,-6580.0
1651668596000.33,-10190.0
1651668596000.332,-11130.0
1651668596000.334,-9267.0
1651668596000.336,-5578.0
1651668596000.338,-1766.0
1651668596000.3398,278.0
1651668596000.3418,-944.0
1651668596000.3438,-5069.0
1651668596000.3457,-9348.0
1651668596000.3477,-11233.0
1651668596000.3496,-10225.0
1651668596000.3516,-7018.0
1651668596000.3535,-3013.0
1651668596000.3555,-74.0
1651668596000.3574,-214.0
1651668596000.3594,-3634.0
1651668596000.3613,-8133.0
1651668596000.3633,-10897.0
1651668596000.3652,-10905.0
1651668596000.3672,-8323.0
1651668596000.3691,-4326.0
1651668596000.371,-800.0
1651668596000.373,253.0
1651668596000.375,-2061.0
1651668596000.377,-6554.0
1651668596000.379,-10203.0
1651668596000.3809,-11120.0
1651668596000.3828,-9332.0
1651668596000.3848,-5606.0
1651668596000.3867,-1724.0
1651668596000.3887,380.0
1651668596000.3906,-811.0
1651668596000.3926,-4902.0
1651668596000.3945,-9161.0
1651668596000.3965,-11075.0
1651668596000.3984,-10101.0
1651668596000.4004,-6903.0
1651668596000.4023,-2919.0
1651668596000.4043,13.0
1651668596000.4062,-78.0
1651668596000.4082,-3427.0
1651668596000.4102,-7921.0
1651668596000.412,-10719.0
1651668596000.414,-10728.0
1651668596000.416,-8154.0
1651668596000.418,-4173.0
1651668596000.42,-648.0
1651668596000.4219,427.0
1651668596000.4238,-1869.0
1651668596000.4258,-6356.0
1651668596000.4277,-10028.0
1651668596000.4297,-10981.0
1651668596000.4316,-9120.0
1651668596000.4336,-5446.0
1651668596000.4355,-1600.0
1651668596000.4375,513.0
1651668596000.4395,-663.0
1651668596000.4414,-4765.0
1651668596000.4434,-9047.0
1651668596000.4453,-10976.0
1651668596000.4473,-10010.0
1651668596000.4492,-6806.0
1651668596000.4512,-2825.0
1651668596000.4531,92.0
1651668596000.455,92.0
1651668596000.457,-3285.0
1651668596000.459,-7822.0
1651668596000.461,-10668.0
1651668596000.463,-10695.0
1651668596000.4648,-8096.0
1651668596000.4668,-4103.0
1651668596000.4688,-561.0
1651668596000.4707,498.0
1651668596000.4727,-1829.0
1651668596000.4746,-6329.0
1651668596000.4766,-9997.0
1651668596000.4785,-10976.0
1651668596000.4805,-9140.0
1651668596000.4824,-5445.0
1651668596000.4844,-1592.0
1651668596000.4863,538.0
1651668596000.4883,-619.0
1651668596000.4902,-4703.0
1651668596000.4922,-8968.0
1651668596000.4941,-10911.0
1651668596000.496,-9966.0
1651668596000.498,-6796.0
1651668596000.5,-2810.0
1651668596000.502,143.0
1651668596000.504,60.0
1651668596000.5059,-3287.0
1651668596000.5078,-7793.0
1651668596000.5098,-10586.0
1651668596000.5117,-10624.0
1651668596000.5137,-8100.0
1651668596000.5156,-4170.0
1651668596000.5176,-627.0
1651668596000.5195,588.0
1651668596000.5215,-1824.0
1651668596000.5234,-6310.0
1651668596000.5254,-9946.0
1651668596000.5273,-10926.0
1651668596000.5293,-9089.0
1651668596000.5312,-5398.0
1651668596000.5332,-1522.0
1651668596000.5352,650.0
1651668596000.537,-484.0
1651668596000.539,-4574.0
1651668596000.541,-8859.0
1651668596000.543,-10816.0
1651668596000.545,-9869.0
1651668596000.5469,-6683.0
1651668596000.5488,-2682.0
1651668596000.5508,299.0
1651668596000.5527,268.0
1651668596000.5547,-3037.0
1651668596000.5566,-7530.0
1651668596000.5586,-10397.0
1651668596000.5605,-10503.0
1651668596000.5625,-7906.0
1651668596000.5645,-3957.0
1651668596000.5664,-410.0
1651668596000.5684,695.0
1651668596000.5703,-1669.0
1651668596000.5723,-6107.0
1651668596000.5742,-9780.0
1651668596000.5762,-10805.0
1651668596000.5781,-9005.0
1651668596000.58,-5339.0
1651668596000.582,-1479.0
1651668596000.584,683.0
1651668596000.586,-446.0
1651668596000.588,-4521.0
1651668596000.5898,-8799.0
1651668596000.5918,-10761.0
1651668596000.5938,-9832.0
1651668596000.5957,-6641.0
1651668596000.5977,-2628.0
1651668596000.5996,355.0
1651668596000.6016,330.0
1651668596000.6035,-2992.0
1651668596000.6055,-7535.0
1651668596000.6074,-10390.0
1651668596000.6094,-10449.0
1651668596000.6113,-7937.0
1651668596000.6133,-3976.0
1651668596000.6152,-385.0
1651668596000.6172,767.0
1651668596000.6191,-1564.0
1651668596000.621,-6032.0
1651668596000.623,-9725.0
1651668596000.625,-10739.0
1651668596000.627,-8946.0
1651668596000.629,-5283.0
1651668596000.6309,-1439.0
1651668596000.6328,717.0
1651668596000.6348,-378.0
1651668596000.6367,-4455.0
1651668596000.6387,-8771.0
1651668596000.6406,-10736.0
1651668596000.6426,-9806.0
1651668596000.6445,-6659.0
1651668596000.6465,-2642.0
1651668596000.6484,340.0
1651668596000.6504,345.0
1651668596000.6523,-2926.0
1651668596000.6543,-7437.0
1651668596000.6562,-10272.0
1651668596000.6582,-10346.0
1651668596000.6602,-7863.0
1651668596000.662,-3922.0
1651668596000.664,-368.0
1651668596000.666,767.0
1651668596000.668,-1465.0
1651668596000.67,-5960.0
1651668596000.6719,-9656.0
1651668596000.6738,-10675.0
1651668596000.6758,-8993.0
1651668596000.6777,-5319.0
1651668596000.6797,-1447.0
1651668596000.6816,727.0
1651668596000.6836,-364.0
1651668596000.6855,-4406.0
1651668596000.6875,-8691.0
1651668596000.6895,-10664.0
1651668596000.6914,-9850.0
1651668596000.6934,-6667.0
1651668596000.6953,-2628.0
1651668596000.6973,381.0
1651668596000.6992,385.0
1651668596000.7012,-2901.0
1651668596000.7031,-7418.0
1651668596000.705,-10298.0
1651668596000.707,-10387.0
1651668596000.709,-7904.0
1651668596000.711,-3954.0
1651668596000.713,-382.0
1651668596000.7148,811.0
1651668596000.7168,-1389.0
1651668596000.7188,-5854.0
1651668596000.7207,-9583.0
1651668596000.7227,-10613.0
1651668596000.7246,-8837.0
1651668596000.7266,-5197.0
1651668596000.7285,-1293.0
1651668596000.7305,954.0
1651668596000.7324,-64.0
1651668596000.7344,-4082.0
1651668596000.7363,-8410.0
1651668596000.7383,-10423.0
1651668596000.7402,-9552.0
1651668596000.7422,-6427.0
1651668596000.7441,-2437.0
1651668596000.746,567.0
1651668596000.748,588.0
1651668596000.75,-2701.0
1651668596000.752,-7242.0
1651668596000.754,-10165.0
1651668596000.7559,-10323.0
1651668596000.7578,-7775.0
1651668596000.7598,-3849.0
1651668596000.7617,-288.0
1651668596000.7637,903.0
1651668596000.7656,-1311.0
1651668596000.7676,-5800.0
1651668596000.7695,-9550.0
1651668596000.7715,-10631.0
1651668596000.7734,-8876.0
1651668596000.7754,-5228.0
1651668596000.7773,-1341.0
1651668596000.7793,879.0
1651668596000.7812,-162.0
1651668596000.7832,-4183.0
1651668596000.7852,-8509.0
1651668596000.787,-10513.0
1651668596000.789,-9625.0
1651668596000.791,-6480.0
1651668596000.793,-2452.0
1651668596000.795,591.0
1651668596000.7969,649.0
1651668596000.7988,-2619.0
1651668596000.8008,-7166.0
1651668596000.8027,-10075.0
1651668596000.8047,-10225.0
1651668596000.8066,-7775.0
1651668596000.8086,-3812.0
1651668596000.8105,-200.0
1651668596000.8125,1025.0
1651668596000.8145,-1260.0
1651668596000.8164,-5733.0
1651668596000.8184,-9486.0
1651668596000.8203,-10566.0
1651668596000.8223,-8815.0
1651668596000.8242,-5182.0
1651668596000.8262,-1290.0
1651668596000.8281,956.0
1651668596000.83,-35.0
1651668596000.832,-4041.0
1651668596000.834,-8336.0
1651668596000.836,-10309.0
1651668596000.838,-9442.0
1651668596000.8398,-6327.0
1651668596000.8418,-2303.0
1651668596000.8438,766.0
1651668596000.8457,862.0
1651668596000.8477,-2386.0
1651668596000.8496,-6914.0
1651668596000.8516,-9871.0
1651668596000.8535,-10080.0
1651668596000.8555,-7524.0
1651668596000.8574,-3605.0
1651668596000.8594,-51.0
1651668596000.8613,1169.0
1651668596000.8633,-1006.0
1651668596000.8652,-5487.0
1651668596000.8672,-9237.0
1651668596000.8691,-10314.0
1651668596000.871,-8713.0
1651668596000.873,-5102.0
1651668596000.875,-1194.0
1651668596000.877,1069.0
1651668596000.879,59.0
1651668596000.8809,-3923.0
1651668596000.8828,-8241.0
1651668596000.8848,-10295.0
1651668596000.8867,-9559.0
1651668596000.8887,-6438.0
1651668596000.8906,-2405.0
1651668596000.8926,686.0
1651668596000.8945,785.0
1651668596000.8965,-2424.0
1651668596000.8984,-6920.0
1651668596000.9004,-9818.0
1651668596000.9023,-9967.0
1651668596000.9043,-7535.0
1651668596000.9062,-3593.0
1651668596000.9082,13.0
1651668596000.9102,1247.0
1651668596000.912,-880.0
1651668596000.914,-5321.0
1651668596000.916,-9113.0
1651668596000.918,-10259.0
1651668596000.92,-8596.0
1651668596000.9219,-5019.0
1651668596000.9238,-1128.0
1651668596000.9258,1134.0
1651668596000.9277,56.0
1651668596000.9297,-3900.0
1651668596000.9316,-8223.0
1651668596000.9336,-10313.0
1651668596000.9355,-9514.0
1651668596000.9375,-6456.0
1651668596000.9395,-2464.0
1651668596000.9414,625.0
1651668596000.9434,753.0
1651668596000.9453,-2442.0
1651668596000.9473,-6971.0
1651668596000.9492,-9937.0
1651668596000.9512,-10130.0
1651668596000.9531,-7702.0
1651668596000.955,-3768.0
1651668596000.957,-153.0
1651668596000.959,1140.0
1651668596000.961,-942.0
1651668596000.963,-5395.0
1651668596000.9648,-9204.0
1651668596000.9668,-10357.0
1651668596000.9688,-8669.0
1651668596000.9707,-5037.0
1651668596000.9727,-1128.0
1651668596000.9746,1185.0
1651668596000.9766,253.0
1651668596000.9785,-3721.0
1651668596000.9805,-8066.0
1651668596000.9824,-10177.0
1651668596000.9844,-9386.0
1651668596000.9863,-6302.0
1651668596000.9883,-2306.0
1651668596000.9902,810.0
1651668596000.9922,987.0
1651668596000.9941,-2180.0
1651668596000.996,-6686.0
1651668596000.998,-9675.0
1651668596001.0,-9897.0
1651668596001.002,-7487.0
1651668596001.004,-3545.0
1651668596001.0059,60.0
1651668596001.0078,1329.0
1651668596001.0098,-745.0
1651668596001.0117,-5153.0
1651668596001.0137,-8953.0
1651668596001.0156,-10126.0
1651668596001.0176,-8476.0
1651668596001.0195,-4892.0
1651668596001.0215,-955.0
1651668596001.0234,1299.0
1651668596001.0254,356.0
1651668596001.0273,-3591.0
1651668596001.0293,-7951.0
1651668596001.0312,-10046.0
1651668596001.0332,-9237.0
1651668596001.0352,-6186.0
1651668596001.037,-2194.0
1651668596001.039,910.0
1651668596001.041,1051.0
1651668596001.043,-2121.0
1651668596001.045,-6635.0
1651668596001.0469,-9645.0
1651668596001.0488,-9883.0
1651668596001.0508,-7408.0
1651668596001.0527,-3521.0
1651668596001.0547,41.0
1651668596001.0566,1324.0
1651668596001.0586,-736.0
1651668596001.0605,-5111.0
1651668596001.0625,-8885.0
1651668596001.0645,-10018.0
1651668596001.0664,-8337.0
1651668596001.0684,-4790.0
1651668596001.0703,-921.0
1651668596001.0723,1408.0
1651668596001.0742,496.0
1651668596001.0762,-3454.0
1651668596001.0781,-7820.0
1651668596001.08,-9916.0
1651668596001.082,-9113.0
1651668596001.084,-6036.0
1651668596001.086,-2010.0
1651668596001.088,1107.0
1651668596001.0898,1304.0
1651668596001.0918,-1852.0
1651668596001.0938,-6393.0
1651668596001.0957,-9381.0
1651668596001.0977,-9625.0
1651668596001.0996,-7288.0
1651668596001.1016,-3379.0
1651668596001.1035,206.0
1651668596001.1055,1489.0
1651668596001.1074,-583.0
1651668596001.1094,-5045.0
1651668596001.1113,-8896.0
1651668596001.1133,-10099.0
1651668596001.1152,-8489.0
1651668596001.1172,-4979.0
1651668596001.1191,-1041.0
1651668596001.121,1326.0
1651668596001.123,301.0
1651668596001.125,-3546.0
1651668596001.127,-7833.0
1651668596001.129,-9953.0
1651668596001.1309,-9183.0
1651668596001.1328,-6135.0
1651668596001.1348,-2139.0
1651668596001.1367,976.0
1651668596001.1387,1191.0
1651668596001.1406,-1932.0
1651668596001.1426,-6438.0
1651668596001.1445,-9421.0
1651668596001.1465,-9671.0
1651668596001.1484,-7332.0
1651668596001.1504,-3432.0
1651668596001.1523,188.0
1651668596001.1543,1521.0
1651668596001.1562,-508.0
1651668596001.1582,-4889.0
1651668596001.1602,-8661.0
1651668596001.162,-9862.0
1651668596001.164,-8371.0
1651668596001.166,-4800.0
1651668596001.168,-871.0
1651668596001.17,1486.0
1651668596001.1719,508.0
1651668596001.1738,-3386.0
1651668596001.1758,-7687.0
1651668596001.1777,-9807.0
1651668596001.1797,-9175.0
1651668596001.1816,-6136.0
1651668596001.1836,-2127.0
1651668596001.1855,990.0
1651668596001.1875,1230.0
1651668596001.1895,-1872.0
1651668596001.1914,-6373.0
1651668596001.1934,-9381.0
1651668596001.1953,-9660.0
1651668596001.1973,-7335.0
1651668596001.1992,-3434.0
1651668596001.2012,169.0
1651668596001.2031,1515.0
1651668596001.205,-484.0
1651668596001.207,-4863.0
1651668596001.209,-8686.0
1651668596001.211,-9905.0
1651668596001.213,-8322.0
1651668596001.2148,-4793.0
1651668596001.2168,-871.0
1651668596001.2188,1496.0
1651668596001.2207,538.0
1651668596001.2227,-3250.0
1651668596001.2246,-7597.0
1651668596001.2266,-9784.0
1651668596001.2285,-9062.0
1651668596001.2305,-6070.0
1651668596001.2324,-2080.0
1651668596001.2344,1052.0
1651668596001.2363,1289.0
1651668596001.2383,-1803.0
1651668596001.2402,-6339.0
1651668596001.2422,-9415.0
1651668596001.2441,-9707.0
1651668596001.246,-7372.0
1651668596001.248,-3462.0
1651668596001.25,177.0
1651668596001.252,1587.0
1651668596001.254,-360.0
1651668596001.2559,-4716.0
1651668596001.2578,-8556.0
1651668596001.2598,-9813.0
1651668596001.2617,-8250.0
1651668596001.2637,-4724.0
1651668596001.2656,-862.0
1651668596001.2676,1481.0
1651668596001.2695,657.0
1651668596001.2715,-3219.0
1651668596001.2734,-7568.0
1651668596001.2754,-9762.0
1651668596001.2773,-9089.0
1651668596001.2793,-6119.0
1651668596001.2812,-2142.0
1651668596001.2832,1016.0
1651668596001.2852,1296.0
1651668596001.287,-1759.0
1651668596001.289,-6260.0
1651668596001.291,-9346.0
1651668596001.293,-9691.0
1651668596001.295,-7304.0
1651668596001.2969,-3437.0
1651668596001.2988,180.0
1651668596001.3008,1588.0
1651668596001.3027,-352.0
1651668596001.3047,-4720.0
1651668596001.3066,-8552.0
1651668596001.3086,-9777.0
1651668596001.3105,-8210.0
1651668596001.3125,-4687.0
1651668596001.3145,-785.0
1651668596001.3164,1595.0
1651668596001.3184,796.0
1651668596001.3203,-3105.0
1651668596001.3223,-7412.0
1651668596001.3242,-9552.0
1651668596001.3262,-8898.0
1651668596001.3281,-5939.0
1651668596001.33,-1968.0
1651668596001.332,1180.0
1651668596001.334,1467.0
1651668596001.336,-1602.0
1651668596001.338,-6117.0
1651668596001.3398,-9179.0
1651668596001.3418,-9507.0
1651668596001.3438,-7239.0
1651668596001.3457,-3361.0
1651668596001.3477,286.0
1651668596001.3496,1690.0
1651668596001.3516,-385.0
1651668596001.3535,-4745.0
1651668596001.3555,-8603.0
1651668596001.3574,-9887.0
1651668596001.3594,-8337.0
1651668596001.3613,-4819.0
1651668596001.3633,-921.0
1651668596001.3652,1470.0
1651668596001.3672,673.0
1651668596001.3691,-3185.0
1651668596001.371,-7512.0
1651668596001.373,-9691.0
1651668596001.375,-9122.0
1651668596001.377,-6105.0
1651668596001.379,-2076.0
1651668596001.3809,1092.0
1651668596001.3828,1391.0
1651668596001.3848,-1637.0
1651668596001.3867,-6124.0
1651668596001.3887,-9189.0
1651668596001.3906,-9514.0
1651668596001.3926,-7244.0
1651668596001.3945,-3360.0
1651668596001.3965,278.0
1651668596001.3984,1701.0
1651668596001.4004,-229.0
1651668596001.4023,-4603.0
1651668596001.4043,-8480.0
1651668596001.4062,-9756.0
1651668596001.4082,-8243.0
1651668596001.4102,-4753.0
1651668596001.412,-852.0
1651668596001.414,1574.0
1651668596001.416,793.0
1651668596001.418,-3076.0
1651668596001.42,-7429.0
1651668596001.4219,-9652.0
1651668596001.4238,-9048.0
1651668596001.4258,-6068.0
1651668596001.4277,-2109.0
1651668596001.4297,1078.0
1651668596001.4316,1416.0
1651668596001.4336,-1596.0
1651668596001.4355,-6087.0
1651668596001.4375,-9208.0
1651668596001.4395,-9585.0
1651668596001.4414,-7228.0
1651668596001.4434,-3370.0
1651668596001.4453,263.0
1651668596001.4473,1716.0
1651668596001.4492,-169.0
1651668596001.4512,-4512.0
1651668596001.4531,-8402.0
1651668596001.455,-9718.0
1651668596001.457,-8191.0
1651668596001.459,-4666.0
1651668596001.461,-721.0
1651668596001.463,1734.0
1651668596001.4648,919.0
1651668596001.4668,-2873.0
1651668596001.4688,-7228.0
1651668596001.4707,-9453.0
1651668596001.4727,-8821.0
1651668596001.4746,-5893.0
1651668596001.4766,-1916.0
1651668596001.4785,1286.0
1651668596001.4805,1653.0
1651668596001.4824,-1347.0
1651668596001.4844,-5836.0
1651668596001.4863,-8927.0
1651668596001.4883,-9291.0
1651668596001.4902,-7053.0
1651668596001.4922,-3170.0
1651668596001.4941,500.0
1651668596001.496,1970.0
1651668596001.498,103.0
1651668596001.5,-4240.0
1651668596001.502,-8154.0
1651668596001.504,-9472.0
1651668596001.5059,-7987.0
1651668596001.5078,-4531.0
1651668596001.5098,-673.0
1651668596001.5117,1773.0
1651668596001.5137,1074.0
1651668596001.5156,-2738.0
1651668596001.5176,-7093.0
1651668596001.5195,-9330.0
1651668596001.5215,-8807.0
1651668596001.5234,-5829.0
1651668596001.5254,-1810.0
1651668596001.5273,1329.0
1651668596001.5293,1668.0
1651668596001.5312,-1187.0
1651668596001.5332,-5741.0
1651668596001.5352,-8880.0
1651668596001.537,-9271.0
1651668596001.539,-7061.0
1651668596001.541,-3196.0
1651668596001.543,493.0
1651668596001.545,2018.0
1651668596001.5469,73.0
1651668596001.5488,-4256.0
1651668596001.5508,-8151.0
1651668596001.5527,-9488.0
1651668596001.5547,-7988.0
1651668596001.5566,-4471.0
1651668596001.5586,-578.0
1651668596001.5605,1853.0
1651668596001.5625,1149.0
1651668596001.5645,-2643.0
1651668596001.5664,-6989.0
1651668596001.5684,-9240.0
1651668596001.5703,-8721.0
1651668596001.5723,-5775.0
1651668596001.5742,-1760.0
1651668596001.5762,1446.0
1651668596001.5781,1816.0
1651668596001.58,-1151.0
1651668596001.582,-5646.0
1651668596001.584,-8796.0
1651668596001.586,-9184.0
1651668596001.588,-6959.0
1651668596001.5898,-3109.0
1651668596001.5918,564.0
1651668596001.5938,2082.0
1651668596001.5957,254.0
1651668596001.5977,-4075.0
1651668596001.5996,-8005.0
1651668596001.6016,-9361.0
1651668596001.6035,-7881.0
1651668596001.6055,-4400.0
1651668596001.6074,-497.0
1651668596001.6094,1995.0
1651668596001.6113,1326.0
1651668596001.6133,-2466.0
1651668596001.6152,-6846.0
1651668596001.6172,-9127.0
1651668596001.6191,-8643.0
1651668596001.621,-5726.0
1651668596001.623,-1706.0
1651668596001.625,1529.0
1651668596001.627,1938.0
1651668596001.629,-1038.0
1651668596001.6309,-5472.0
1651668596001.6328,-8701.0
1651668596001.6348,-9202.0
1651668596001.6367,-6926.0
1651668596001.6387,-3080.0
1651668596001.6406,575.0
1651668596001.6426,2109.0
1651668596001.6445,274.0
1651668596001.6465,-4097.0
1651668596001.6484,-8045.0
1651668596001.6504,-9420.0
1651668596001.6523,-7980.0
1651668596001.6543,-4520.0
1651668596001.6562,-583.0
1651668596001.6582,1922.0
1651668596001.6602,1178.0
1651668596001.662,-2579.0
1651668596001.664,-6934.0
1651668596001.666,-9224.0
1651668596001.668,-8761.0
1651668596001.67,-5862.0
1651668596001.6719,-1881.0
1651668596001.6738,1337.0
1651668596001.6758,1889.0
1651668596001.6777,-1067.0
1651668596001.6797,-5595.0
1651668596001.6816,-8783.0
1651668596001.6836,-9233.0
1651668596001.6855,-6943.0
1651668596001.6875,-3102.0
1651668596001.6895,569.0
1651668596001.6914,2115.0
1651668596001.6934,316.0
1651668596001.6953,-4016.0
1651668596001.6973,-7959.0
1651668596001.6992,-9361.0
1651668596001.7012,-7919.0
1651668596001.7031,-4450.0
1651668596001.705,-492.0
1651668596001.707,2042.0
1651668596001.709,1321.0
1651668596001.711,-2452.0
1651668596001.713,-6867.0
1651668596001.7148,-9208.0
1651668596001.7168,-8666.0
1651668596001.7188,-5782.0
1651668596001.7207,-1763.0
1651668596001.7227,1477.0
1651668596001.7246,1927.0
1651668596001.7266,-984.0
1651668596001.7285,-5516.0
1651668596001.7305,-8730.0
1651668596001.7324,-9124.0
1651668596001.7344,-6883.0
1651668596001.7363,-3087.0
1651668596001.7383,588.0
1651668596001.7402,2283.0
1651668596001.7422,410.0
1651668596001.7441,-3890.0
1651668596001.746,-7813.0
1651668596001.748,-9211.0
1651668596001.75,-7797.0
1651668596001.752,-4346.0
1651668596001.754,-401.0
1651668596001.7559,2123.0
1651668596001.7578,1391.0
1651668596001.7598,-2343.0
1651668596001.7617,-6708.0
1651668596001.7637,-9049.0
1651668596001.7656,-8636.0
1651668596001.7676,-5755.0
1651668596001.7695,-1749.0
1651668596001.7715,1501.0
1651668596001.7734,1989.0
1651668596001.7754,-892.0
1651668596001.7773,-5395.0
1651668596001.7793,-8591.0
1651668596001.7812,-9080.0
1651668596001.7832,-6847.0
1651668596001.7852,-3028.0
1651668596001.787,649.0
1651668596001.789,2244.0
1651668596001.791,497.0
1651668596001.793,-3816.0
1651668596001.795,-7787.0
1651668596001.7969,-9212.0
1651668596001.7988,-7783.0
1651668596001.8008,-4359.0
1651668596001.8027,-430.0
1651668596001.8047,2206.0
1651668596001.8066,1492.0
1651668596001.8086,-2244.0
1651668596001.8105,-6608.0
1651668596001.8125,-8943.0
1651668596001.8145,-8520.0
1651668596001.8164,-5640.0
1651668596001.8184,-1636.0
1651668596001.8203,1632.0
1651668596001.8223,2138.0
1651668596001.8242,-762.0
1651668596001.8262,-5278.0
1651668596001.8281,-8497.0
1651668596001.83,-8975.0
1651668596001.832,-6871.0
1651668596001.834,-3020.0
1651668596001.836,763.0
1651668596001.838,2308.0
1651668596001.8398,520.0
1651668596001.8418,-3805.0
1651668596001.8438,-7764.0
1651668596001.8457,-9180.0
1651668596001.8477,-7830.0
1651668596001.8496,-4324.0
1651668596001.8516,-338.0
1651668596001.8535,2236.0
1651668596001.8555,1561.0
1651668596001.8574,-2173.0
1651668596001.8594,-6557.0
1651668596001.8613,-8903.0
1651668596001.8633,-8479.0
1651668596001.8652,-5585.0
1651668596001.8672,-1573.0
1651668596001.8691,1705.0
1651668596001.871,2210.0
1651668596001.873,-676.0
1651668596001.875,-5173.0
1651668596001.877,-8388.0
1651668596001.879,-8877.0
1651668596001.8809,-6773.0
1651668596001.8828,-2949.0
1651668596001.8848,759.0
1651668596001.8867,2375.0
1651668596001.8887,672.0
1651668596001.8906,-3629.0
1651668596001.8926,-7608.0
1651668596001.8945,-9030.0
1651668596001.8965,-7732.0
1651668596001.8984,-4243.0
1651668596001.9004,-258.0
1651668596001.9023,2324.0
1651668596001.9043,1692.0
1651668596001.9062,-1983.0
1651668596001.9082,-6336.0
1651668596001.9102,-8698.0
1651668596001.912,-8278.0
1651668596001.914,-5390.0
1651668596001.916,-1374.0
1651668596001.918,1923.0
1651668596001.92,2474.0
1651668596001.9219,-389.0
1651668596001.9238,-4899.0
1651668596001.9258,-8159.0
1651668596001.9277,-8701.0
1651668596001.9297,-6503.0
1651668596001.9316,-2707.0
1651668596001.9336,931.0
1651668596001.9355,2568.0
1651668596001.9375,894.0
1651668596001.9395,-3469.0
1651668596001.9414,-7491.0
1651668596001.9434,-8987.0
1651668596001.9453,-7658.0
1651668596001.9473,-4209.0
1651668596001.9492,-228.0
1651668596001.9512,2378.0
1651668596001.9531,1734.0
1651668596001.955,-1985.0
1651668596001.957,-6429.0
1651668596001.959,-8832.0
1651668596001.961,-8349.0
1651668596001.963,-5509.0
1651668596001.9648,-1515.0
1651668596001.9668,1787.0
1651668596001.9688,2346.0
1651668596001.9707,-483.0
1651668596001.9727,-4979.0
1651668596001.9746,-8249.0
1651668596001.9766,-8808.0
1651668596001.9785,-6616.0
1651668596001.9805,-2805.0
1651668596001.9824,906.0
1651668596001.9844,2579.0
1651668596001.9863,912.0
1651668596001.9883,-3371.0
1651668596001.9902,-7386.0
1651668596001.9922,-8877.0
1651668596001.9941,-7538.0
1651668596001.996,-4111.0
1651668596001.998,-148.0
1651668596002.0,2463.0
1651668596002.002,1861.0
1651668596002.004,-1828.0
1651668596002.0059,-6234.0
1651668596002.0078,-8653.0
1651668596002.0098,-8323.0
1651668596002.0117,-5489.0
1651668596002.0137,-1476.0
1651668596002.0156,1840.0
1651668596002.0176,2426.0
1651668596002.0195,-392.0
1651668596002.0215,-4905.0
1651668596002.0234,-8221.0
1651668596002.0254,-8794.0
1651668596002.0273,-6602.0
1651668596002.0293,-2802.0
1651668596002.0312,881.0
1651668596002.0332,2525.0
1651668596002.0352,945.0
1651668596002.037,-3327.0
1651668596002.039,-7388.0
1651668596002.041,-8885.0
1651668596002.043,-7546.0
1651668596002.045,-4130.0
1651668596002.0469,-167.0
1651668596002.0488,2440.0
1651668596002.0508,1847.0
1651668596002.0527,-1824.0
1651668596002.0547,-6211.0
1651668596002.0566,-8628.0
1651668596002.0586,-8287.0
1651668596002.0605,-5458.0
1651668596002.0625,-1460.0
1651668596002.0645,1854.0
1651668596002.0664,2460.0
1651668596002.0684,-264.0
1651668596002.0703,-4819.0
1651668596002.0723,-8117.0
1651668596002.0742,-8694.0
1651668596002.0762,-6626.0
1651668596002.0781,-2791.0
1651668596002.08,983.0
1651668596002.082,2680.0
1651668596002.084,913.0
1651668596002.086,-3325.0
1651668596002.088,-7315.0
1651668596002.0898,-8834.0
1651668596002.0918,-7520.0
1651668596002.0938,-4104.0
1651668596002.0957,-130.0
1651668596002.0977,2500.0
1651668596002.0996,1912.0
1651668596002.1016,-1757.0
1651668596002.1035,-6168.0
1651668596002.1055,-8604.0
1651668596002.1074,-8272.0
1651668596002.1094,-5439.0
1651668596002.1113,-1421.0
1651668596002.1133,1916.0
1651668596002.1152,2507.0
1651668596002.1172,-300.0
1651668596002.1191,-4845.0
1651668596002.121,-8132.0
1651668596002.123,-8799.0
1651668596002.125,-6649.0
1651668596002.127,-2872.0
1651668596002.129,855.0
1651668596002.1309,2633.0
1651668596002.1328,979.0
1651668596002.1348,-3357.0
1651668596002.1367,-7356.0
1651668596002.1387,-8934.0
1651668596002.1406,-7689.0
1651668596002.1426,-4301.0
1651668596002.1445,-313.0
1651668596002.1465,2350.0
1651668596002.1484,1806.0
1651668596002.1504,-1835.0
1651668596002.1523,-6306.0
1651668596002.1543,-8834.0
1651668596002.1562,-8476.0
1651668596002.1582,-5727.0
1651668596002.1602,-1768.0
1651668596002.162,1576.0
1651668596002.164,2230.0
1651668596002.166,-549.0
1651668596002.168,-5026.0
1651668596002.17,-8354.0
1651668596002.1719,-9011.0
1651668596002.1738,-6889.0
1651668596002.1758,-3082.0
1651668596002.1777,643.0
1651668596002.1797,2339.0
1651668596002.1816,745.0
1651668596002.1836,-3485.0
1651668596002.1855,-7552.0
1651668596002.1875,-9143.0
1651668596002.1895,-7853.0
1651668596002.1914,-4451.0
1651668596002.1934,-459.0
1651668596002.1953,2228.0
1651668596002.1973,1729.0
1651668596002.1992,-1908.0
1651668596002.2012,-6313.0
1651668596002.2031,-8766.0
1651668596002.205,-8476.0
1651668596002.207,-5712.0
1651668596002.209,-1733.0
1651668596002.211,1631.0
1651668596002.213,2321.0
1651668596002.2148,-382.0
1651668596002.2168,-4836.0
1651668596002.2188,-8152.0
1651668596002.2207,-8792.0
1651668596002.2227,-6689.0
1651668596002.2246,-2930.0
1651668596002.2266,785.0
1651668596002.2285,2527.0
1651668596002.2305,949.0
1651668596002.2324,-3297.0
1651668596002.2344,-7301.0
1651668596002.2363,-8845.0
1651668596002.2383,-7616.0
1651668596002.2402,-4238.0
1651668596002.2422,-269.0
1651668596002.2441,2432.0
1651668596002.246,1948.0
1651668596002.248,-1647.0
1651668596002.25,-6047.0
1651668596002.252,-8524.0
1651668596002.254,-8234.0
1651668596002.2559,-5439.0
1651668596002.2578,-1471.0
1651668596002.2598,1846.0
1651668596002.2617,2522.0
1651668596002.2637,-100.0
1651668596002.2656,-4601.0
1651668596002.2676,-7946.0
1651668596002.2695,-8557.0
1651668596002.2715,-6543.0
1651668596002.2734,-2752.0
1651668596002.2754,1021.0
1651668596002.2773,2828.0
1651668596002.2793,1293.0
1651668596002.2812,-2908.0
1651668596002.2832,-6945.0
1651668596002.2852,-8519.0
1651668596002.287,-7284.0
1651668596002.289,-3936.0
1651668596002.291,35.0
1651668596002.293,2737.0
1651668596002.295,2261.0
1651668596002.2969,-1329.0
1651668596002.2988,-5729.0
1651668596002.3008,-8242.0
1651668596002.3027,-8030.0
1651668596002.3047,-5290.0
1651668596002.3066,-1311.0
1651668596002.3086,2050.0
1651668596002.3105,2743.0
1651668596002.3125,45.0
1651668596002.3145,-4400.0
1651668596002.3164,-7727.0
1651668596002.3184,-8382.0
1651668596002.3203,-6406.0
1651668596002.3223,-2625.0
1651668596002.3242,1125.0
1651668596002.3262,2900.0
1651668596002.3281,1405.0
1651668596002.33,-2657.0
1651668596002.332,-6413.0
1651668596002.334,-7813.0
1651668596002.336,-6646.0
1651668596002.338,-3478.0
1651668596002.3398,491.0
1651668596002.3418,3243.0
1651668596002.3438,2881.0
1651668596002.3457,-616.0
1651668596002.3477,-4892.0
1651668596002.3496,-7414.0
1651668596002.3516,-7394.0
1651668596002.3535,-4928.0
1651668596002.3555,-1124.0
1651668596002.3574,2149.0
1651668596002.3594,2914.0
1651668596002.3613,389.0
1651668596002.3633,-3934.0
1651668596002.3652,-7297.0
1651668596002.3672,-8079.0
1651668596002.3691,-6134.0
1651668596002.371,-2519.0
1651668596002.373,1084.0
1651668596002.375,2833.0
1651668596002.377,1411.0
1651668596002.379,-2610.0
1651668596002.3809,-6539.0
1651668596002.3828,-8194.0
1651668596002.3848,-7156.0
1651668596002.3867,-4030.0
1651668596002.3887,-182.0
1651668596002.3906,2556.0
1651668596002.3926,2239.0
1651668596002.3945,-1133.0
1651668596002.3965,-5403.0
1651668596002.3984,-7980.0
1651668596002.4004,-7921.0
1651668596002.4023,-5445.0
1651668596002.4043,-1713.0
1651668596002.4062,1580.0
1651668596002.4082,2520.0
1651668596002.4102,56.0
1651668596002.412,-4213.0
1651668596002.414,-7509.0
1651668596002.416,-8265.0
1651668596002.418,-6397.0
1651668596002.42,-2834.0
1651668596002.4219,808.0
1651668596002.4238,2666.0
1651668596002.4258,1375.0
1651668596002.4277,-2597.0
1651668596002.4297,-6570.0
1651668596002.4316,-8275.0
1651668596002.4336,-7230.0
1651668596002.4355,-4043.0
1651668596002.4375,-187.0
1651668596002.4395,2487.0
1651668596002.4414,2320.0
1651668596002.4434,-891.0
1651668596002.4453,-5111.0
1651668596002.4473,-7618.0
1651668596002.4492,-7443.0
1651668596002.4512,-5078.0
1651668596002.4531,-1429.0
1651668596002.455,1765.0
1651668596002.457,2689.0
1651668596002.459,407.0
1651668596002.461,-3755.0
1651668596002.463,-7076.0
1651668596002.4648,-7954.0
1651668596002.4668,-6134.0
1651668596002.4688,-2619.0
1651668596002.4707,1004.0
1651668596002.4727,2969.0
1651668596002.4746,1784.0
1651668596002.4766,-2069.0
1651668596002.4785,-6047.0
1651668596002.4805,-7833.0
1651668596002.4824,-6920.0
1651668596002.4844,-3996.0
1651668596002.4863,-494.0
1651668596002.4883,2054.0
1651668596002.4902,2117.0
1651668596002.4922,-616.0
1651668596002.4941,-4454.0
1651668596002.496,-6925.0
1651668596002.498,-7166.0
1651668596002.5,-5128.0
1651668596002.502,-1818.0
1651668596002.504,1224.0
1651668596002.5059,2316.0
1651668596002.5078,457.0
1651668596002.5098,-3222.0
1651668596002.5117,-6307.0
1651668596002.5137,-7202.0
1651668596002.5156,-5862.0
1651668596002.5176,-3079.0
1651668596002.5195,46.0
1651668596002.5215,2054.0
1651668596002.5234,1715.0
1651668596002.5254,-1121.0
1651668596002.5273,-4650.0
1651668596002.5293,-6723.0
1651668596002.5312,-6514.0
1651668596002.5332,-4149.0
1651668596002.5352,-720.0
1651668596002.537,1993.0
1651668596002.539,2122.0
1651668596002.541,-392.0
1651668596002.543,-4140.0
1651668596002.545,-6853.0
1651668596002.5469,-7386.0
1651668596002.5488,-5566.0
1651668596002.5508,-2610.0
1651668596002.5527,111.0
1651668596002.5547,1019.0
1651668596002.5566,-286.0
1651668596002.5586,-3170.0
1651668596002.5605,-5600.0
1651668596002.5625,-6368.0
1651668596002.5645,-5478.0
1651668596002.5664,-3644.0
1651668596002.5684,-1283.0
1651668596002.5703,566.0
1651668596002.5723,391.0
1651668596002.5742,-2084.0
1651668596002.5762,-5277.0
1651668596002.5781,-7399.0
1651668596002.58,-7705.0
1651668596002.582,-5869.0
1651668596002.584,-3101.0
1651668596002.586,-700.0
1651668596002.588,-180.0
1651668596002.5898,-1981.0
1651668596002.5918,-5053.0
1651668596002.5938,-7253.0
1651668596002.5957,-7563.0
1651668596002.5977,-6452.0
1651668596002.5996,-4337.0
1651668596002.6016,-2043.0
1651668596002.6035,-1017.0
1651668596002.6055,-1646.0
1651668596002.6074,-3852.0
1651668596002.6094,-6579.0
1651668596002.6113,-8274.0
1651668596002.6133,-7881.0
1651668596002.6152,-5694.0
1651668596002.6172,-2774.0
1651668596002.6191,-607.0
1651668596002.621,-864.0
1651668596002.623,-3345.0
1651668596002.625,-6409.0
1651668596002.627,-8305.0
1651668596002.629,-8206.0
1651668596002.6309,-6114.0
1651668596002.6328,-3164.0
1651668596002.6348,-605.0
1651668596002.6367,-87.0
1651668596002.6387,-1989.0
1651668596002.6406,-5179.0
1651668596002.6426,-7501.0
1651668596002.6445,-8133.0
1651668596002.6465,-6933.0
1651668596002.6484,-4231.0
1651668596002.6504,-1232.0
1651668596002.6523,195.0
1651668596002.6543,-859.0
1651668596002.6562,-3974.0
1651668596002.6582,-7319.0
1651668596002.6602,-8801.0
1651668596002.662,-7636.0
1651668596002.664,-4895.0
1651668596002.666,-1879.0
1651668596002.668,66.0
1651668596002.67,-283.0
1651668596002.6719,-2621.0
1651668596002.6738,-5299.0
1651668596002.6758,-6992.0
1651668596002.6777,-6999.0
1651668596002.6797,-5500.0
1651668596002.6816,-3336.0
1651668596002.6836,-1398.0
1651668596002.6855,-815.0
1651668596002.6875,-2251.0
1651668596002.6895,-4843.0
1651668596002.6914,-6976.0
1651668596002.6934,-7641.0
1651668596002.6953,-6543.0
1651668596002.6973,-4331.0
1651668596002.6992,-1858.0
1651668596002.7012,-582.0
1651668596002.7031,-1293.0
1651668596002.705,-3412.0
1651668596002.707,-5323.0
1651668596002.709,-6026.0
1651668596002.711,-5374.0
1651668596002.713,-4098.0
1651668596002.7148,-2751.0
1651668596002.7168,-1675.0
1651668596002.7188,-1575.0
1651668596002.7207,-2612.0
1651668596002.7227,-4243.0
1651668596002.7246,-5507.0
1651668596002.7266,-5842.0
1651668596002.7285,-4960.0
1651668596002.7305,-3288.0
1651668596002.7324,-1362.0
1651668596002.7344,-765.0
1651668596002.7363,-1761.0
1651668596002.7383,-3866.0
1651668596002.7402,-5613.0
1651668596002.7422,-6080.0
1651668596002.7441,-5129.0
1651668596002.746,-3404.0
1651668596002.748,-1241.0
1651668596002.75,-152.0
1651668596002.752,-760.0
1651668596002.754,-2776.0
1651668596002.7559,-4756.0
1651668596002.7578,-5691.0
1651668596002.7598,-5206.0
1651668596002.7617,-3688.0
1651668596002.7637,-1733.0
1651668596002.7656,-291.0
1651668596002.7676,-249.0
1651668596002.7695,-1859.0
1651668596002.7715,-4019.0
1651668596002.7734,-5340.0
1651668596002.7754,-5232.0
1651668596002.7773,-4006.0
1651668596002.7793,-2096.0
1651668596002.7812,-411.0
1651668596002.7832,136.0
1651668596002.7852,-849.0
1651668596002.787,-2845.0
1651668596002.789,-4482.0
1651668596002.791,-5044.0
1651668596002.793,-4203.0
1651668596002.795,-2415.0
1651668596002.7969,-615.0
1651668596002.7988,475.0
1651668596002.8008,-49.0
1651668596002.8027,-1914.0
1651668596002.8047,-3813.0
1651668596002.8066,-4724.0
1651668596002.8086,-4298.0
1651668596002.8105,-2974.0
1651668596002.8125,-1282.0
1651668596002.8145,-45.0
1651668596002.8164,16.0
1651668596002.8184,-1316.0
1651668596002.8203,-3102.0
1651668596002.8223,-4272.0
1651668596002.8242,-4302.0
1651668596002.8262,-3427.0
1651668596002.8281,-1851.0
1651668596002.83,-516.0
1651668596002.832,15.0
1651668596002.834,-735.0
1651668596002.836,-2383.0
1651668596002.838,-3783.0
1651668596002.8398,-4340.0
1651668596002.8418,-3725.0
1651668596002.8438,-2641.0
1651668596002.8457,-1505.0
1651668596002.8477,-1059.0
1651668596002.8496,-1628.0
1651668596002.8516,-2716.0
1651668596002.8535,-3491.0
1651668596002.8555,-3600.0
1651668596002.8574,-3381.0
1651668596002.8594,-2754.0
1651668596002.8613,-2165.0
1651668596002.8633,-1913.0
1651668596002.8652,-2143.0
1651668596002.8672,-2809.0
1651668596002.8691,-3364.0
1651668596002.871,-3454.0
1651668596002.873,-3317.0
1651668596002.875,-2792.0
1651668596002.877,-2366.0
1651668596002.879,-1993.0
1651668596002.8809,-2128.0
1651668596002.8828,-2623.0
1651668596002.8848,-3163.0
1651668596002.8867,-3374.0
1651668596002.8887,-3364.0
1651668596002.8906,-2964.0
1651668596002.8926,-2548.0
1651668596002.8945,-2118.0
1651668596002.8965,-2134.0
1651668596002.8984,-2393.0
1651668596002.9004,-2927.0
1651668596002.9023,-3217.0
1651668596002.9043,-3317.0
1651668596002.9062,-3021.0
1651668596002.9082,-2659.0
1651668596002.9102,-2220.0
1651668596002.912,-2124.0
1651668596002.914,-2238.0
1651668596002.916,-2738.0
1651668596002.918,-3155.0
1651668596002.92,-3203.0
1651668596002.9219,-3135.0
1651668596002.9238,-2740.0
1651668596002.9258,-2410.0
1651668596002.9277,-2106.0
1651668596002.9297,-2236.0
1651668596002.9316,-2546.0
1651668596002.9336,-3002.0
1651668596002.9355,-3137.0
1651668596002.9375,-3133.0
1651668596002.9395,-2800.0
1651668596002.9414,-2501.0
1651668596002.9434,-2176.0
1651668596002.9453,-2238.0
1651668596002.9473,-2439.0
1651668596002.9492,-2789.0
1651668596002.9512,-3053.0
1651668596002.9531,-3145.0
1651668596002.955,-2867.0
1651668596002.957,-2580.0
1651668596002.959,-2245.0
1651668596002.961,-2209.0
1651668596002.963,-2322.0
1651668596002.9648,-2715.0
1651668596002.9668,-2966.0
1651668596002.9688,-3113.0
1651668596002.9707,-2934.0
1651668596002.9727,-2722.0
1651668596002.9746,-2376.0
1651668596002.9766,-2253.0
1651668596002.9785,-2263.0
1651668596002.9805,-2583.0
1651668596002.9824,-2825.0
1651668596002.9844,-3053.0
1651668596002.9863,-2955.0
1651668596002.9883,-2803.0
1651668596002.9902,-2463.0
1651668596002.9922,-2299.0
1651668596002.9941,-2212.0
1651668596002.996,-2455.0
1651668596002.998,-2715.0
1651668596003.0,-2982.0
1651668596003.002,-2952.0
1651668596003.004,-2858.0
1651668596003.0059,-2521.0
1651668596003.0078,-2331.0
1651668596003.0098,-2176.0
1651668596003.0117,-2350.0
1651668596003.0137,-2577.0
1651668596003.0156,-2894.0
1651668596003.0176,-2933.0
1651668596003.0195,-2904.0
1651668596003.0215,-2619.0
1651668596003.0234,-2416.0
1651668596003.0254,-2200.0
1651668596003.0273,-2295.0
1651668596003.0293,-2475.0
1651668596003.0312,-2814.0
1651668596003.0332,-2915.0
1651668596003.0352,-2941.0
1651668596003.037,-2690.0
1651668596003.039,-2475.0
1651668596003.041,-2202.0
1651668596003.043,-2222.0
1651668596003.045,-2369.0
1651668596003.0469,-2712.0
1651668596003.0488,-2878.0
1651668596003.0508,-2975.0
1651668596003.0527,-2692.0
1651668596003.0547,-2515.0
1651668596003.0566,-2248.0
1651668596003.0586,-2211.0
1651668596003.0605,-2271.0
1651668596003.0625,-2599.0
1651668596003.0645,-2800.0
1651668596003.0664,-2948.0
1651668596003.0684,-2802.0
1651668596003.0703,-2635.0
1651668596003.0723,-2329.0
1651668596003.0742,-2240.0
1651668596003.0762,-2224.0
1651668596003.0781,-2495.0
1651668596003.08,-2714.0
1651668596003.082,-2923.0
1651668596003.084,-2843.0
1651668596003.086,-2722.0
1651668596003.088,-2412.0
1651668596003.0898,-2262.0
1651668596003.0918,-2175.0
1651668596003.0938,-2406.0
1651668596003.0957,-2616.0
1651668596003.0977,-2862.0
1651668596003.0996,-2849.0
1651668596003.1016,-2783.0
1651668596003.1035,-2477.0
1651668596003.1055,-2309.0
1651668596003.1074,-2169.0
1651668596003.1094,-2340.0
1651668596003.1113,-2532.0
1651668596003.1133,-2814.0
1651668596003.1152,-2835.0
1651668596003.1172,-2805.0
1651668596003.1191,-2536.0
1651668596003.121,-2351.0
1651668596003.123,-2151.0
1651668596003.125,-2244.0
1651668596003.127,-2410.0
1651668596003.129,-2721.0
1651668596003.1309,-2805.0
1651668596003.1328,-2846.0
1651668596003.1348,-2624.0
1651668596003.1367,-2442.0
1651668596003.1387,-2183.0
1651668596003.1406,-2207.0
1651668596003.1426,-2343.0
1651668596003.1445,-2668.0
1651668596003.1465,-2810.0
1651668596003.1484,-2907.0
1651668596003.1504,-2616.0
1651668596003.1523,-2459.0
1651668596003.1543,-2311.0
1651668596003.1562,-2145.0
1651668596003.1582,-2317.0
1651668596003.1602,-2521.0
1651668596003.162,-2805.0
1651668596003.164,-2813.0
1651668596003.166,-2777.0
1651668596003.168,-2517.0
1651668596003.17,-2343.0
1651668596003.1719,-2128.0
1651668596003.1738,-2229.0
1651668596003.1758,-2409.0
1651668596003.1777,-2743.0
1651668596003.1797,-2846.0
1651668596003.1816,-2876.0
1651668596003.1836,-2628.0
1651668596003.1855,-2430.0
1651668596003.1875,-2160.0
1651668596003.1895,-2182.0
1651668596003.1914,-2313.0
1651668596003.1934,-2660.0
1651668596003.1953,-2807.0
1651668596003.1973,-2887.0
1651668596003.1992,-2681.0
1651668596003.2012,-2486.0
1651668596003.2031,-2197.0
1651668596003.205,-2153.0
1651668596003.207,-2209.0
1651668596003.209,-2530.0
1651668596003.211,-2748.0
1651668596003.213,-2920.0
1651668596003.2148,-2788.0
1651668596003.2168,-2608.0
1651668596003.2188,-2249.0
1651668596003.2207,-2121.0
1651668596003.2227,-2116.0
1651668596003.2246,-2439.0
1651668596003.2266,-2715.0
1651668596003.2285,-2948.0
1651668596003.2305,-2862.0
1651668596003.2324,-2692.0
1651668596003.2344,-2303.0
1651668596003.2363,-2103.0
1651668596003.2383,-1997.0
1651668596003.2402,-2264.0
1651668596003.2422,-2584.0
1651668596003.2441,-2905.0
1651668596003.246,-2915.0
1651668596003.248,-2825.0
1651668596003.25,-2333.0
1651668596003.252,-2088.0
1651668596003.254,-2030.0
1651668596003.2559,-2096.0
1651668596003.2578,-2501.0
1651668596003.2598,-2803.0
1651668596003.2617,-3002.0
1651668596003.2637,-2828.0
1651668596003.2656,-2568.0
1651668596003.2676,-2129.0
1651668596003.2695,-1943.0
1651668596003.2715,-1956.0
1651668596003.2734,-2336.0
1651668596003.2754,-2693.0
1651668596003.2773,-2978.0
1651668596003.2793,-2893.0
1651668596003.2812,-2675.0
1651668596003.2832,-2223.0
1651668596003.2852,-1961.0
1651668596003.287,-1851.0
1651668596003.289,-2168.0
1651668596003.291,-2566.0
1651668596003.293,-2959.0
1651668596003.295,-2959.0
1651668596003.2969,-2811.0
1651668596003.2988,-2377.0
1651668596003.3008,-2045.0
1651668596003.3027,-1803.0
1651668596003.3047,-2034.0
1651668596003.3066,-2415.0
1651668596003.3086,-2871.0
1651668596003.3105,-2984.0
1651668596003.3125,-2915.0
1651668596003.3145,-2486.0
1651668596003.3164,-2124.0
1651668596003.3184,-1804.0
1651668596003.3203,-1919.0
1651668596003.3223,-2238.0
1651668596003.3242,-2737.0
1651668596003.3262,-2942.0
1651668596003.3281,-2967.0
1651668596003.33,-2613.0
1651668596003.332,-2251.0
1651668596003.334,-1870.0
1651668596003.336,-1874.0
1651668596003.338,-2063.0
1651668596003.3398,-2572.0
1651668596003.3418,-2951.0
1651668596003.3438,-2920.0
1651668596003.3457,-2758.0
1651668596003.3477,-2292.0
1651668596003.3496,-1983.0
1651668596003.3516,-1745.0
1651668596003.3535,-1873.0
1651668596003.3555,-2354.0
1651668596003.3574,-2805.0
1651668596003.3594,-2868.0
1651668596003.3613,-2789.0
1651668596003.3633,-2401.0
1651668596003.3652,-2089.0
1651668596003.3672,-1801.0
1651668596003.3691,-1916.0
1651668596003.371,-2171.0
1651668596003.373,-2573.0
1651668596003.375,-2715.0
1651668596003.377,-2730.0
1651668596003.379,-2430.0
1651668596003.3809,-2175.0
1651668596003.3828,-1894.0
1651668596003.3848,-1931.0
1651668596003.3867,-2038.0
1651668596003.3887,-2423.0
1651668596003.3906,-2685.0
1651668596003.3926,-2620.0
1651668596003.3945,-2521.0
1651668596003.3965,-2196.0
1651668596003.3984,-1998.0
1651668596003.4004,-1836.0
1651668596003.4023,-2012.0
1651668596003.4043,-2247.0
1651668596003.4062,-2526.0
1651668596003.4082,-2547.0
1651668596003.4102,-2535.0
1651668596003.412,-2259.0
1651668596003.414,-2072.0
1651668596003.416,-1881.0
1651668596003.418,-2007.0
1651668596003.42,-2161.0
1651668596003.4219,-2430.0
1651668596003.4238,-2495.0
1651668596003.4258,-2521.0
1651668596003.4277,-2307.0
1651668596003.4297,-2161.0
1651668596003.4316,-1941.0
1651668596003.4336,-1981.0
1651668596003.4355,-2078.0
1651668596003.4375,-2369.0
1651668596003.4395,-2499.0
1651668596003.4414,-2574.0
1651668596003.4434,-2405.0
1651668596003.4453,-2277.0
1651668596003.4473,-2037.0
1651668596003.4492,-2011.0
1651668596003.4512,-2000.0
1651668596003.4531,-2242.0
1651668596003.455,-2379.0
1651668596003.457,-2507.0
1651668596003.459,-2503.0
1651668596003.461,-2251.0
1651668596003.463,-2107.0
1651668596003.4648,-1917.0
1651668596003.4668,-1993.0
1651668596003.4688,-2103.0
1651668596003.4707,-2357.0
1651668596003.4727,-2410.0
1651668596003.4746,-2437.0
1651668596003.4766,-2255.0
1651668596003.4785,-2145.0
1651668596003.4805,-1931.0
1651668596003.4824,-1953.0
1651668596003.4844,-2034.0
1651668596003.4863,-2311.0
1651668596003.4883,-2404.0
1651668596003.4902,-2466.0
1651668596003.4922,-2302.0
1651668596003.4941,-2196.0
1651668596003.496,-1981.0
1651668596003.498,-1952.0
1651668596003.5,-1956.0
1651668596003.502,-2191.0
1651668596003.504,-2303.0
1651668596003.5059,-2408.0
1651668596003.5078,-2282.0
1651668596003.5098,-2186.0
1651668596003.5117,-1936.0
1651668596003.5137,-1879.0
1651668596003.5156,-1799.0
1651668596003.5176,-1997.0
1651668596003.5195,-2134.0
1651668596003.5215,-2285.0
1651668596003.5234,-2198.0
1651668596003.5254,-2120.0
1651668596003.5273,-1884.0
1651668596003.5293,-1811.0
1651668596003.5312,-1735.0
1651668596003.5332,-1919.0
1651668596003.5352,-2019.0
1651668596003.537,-2262.0
1651668596003.539,-2302.0
1651668596003.541,-2143.0
1651668596003.543,-2069.0
1651668596003.545,-1854.0
1651668596003.5469,-1821.0
1651668596003.5488,-1804.0
1651668596003.5508,-2048.0
1651668596003.5527,-2253.0
1651668596003.5547,-2244.0
1651668596003.5566,-2231.0
1651668596003.5586,-2036.0
1651668596003.5605,-1934.0
1651668596003.5625,-1712.0
1651668596003.5645,-1839.0
1651668596003.5664,-1964.0
1651668596003.5684,-2196.0
1651668596003.5703,-2224.0
1651668596003.5723,-2277.0
1651668596003.5742,-2117.0
1651668596003.5762,-2003.0
1651668596003.5781,-1806.0
1651668596003.58,-1847.0
1651668596003.582,-1897.0
1651668596003.584,-2127.0
1651668596003.586,-2216.0
1651668596003.588,-2295.0
1651668596003.5898,-2143.0
1651668596003.5918,-2030.0
1651668596003.5938,-1784.0
1651668596003.5957,-1770.0
1651668596003.5977,-1799.0
1651668596003.5996,-2030.0
1651668596003.6016,-2132.0
1651668596003.6035,-2262.0
1651668596003.6055,-2175.0
1651668596003.6074,-2096.0
1651668596003.6094,-1862.0
1651668596003.6113,-1799.0
1651668596003.6133,-1745.0
1651668596003.6152,-1935.0
1651668596003.6172,-2059.0
1651668596003.6191,-2234.0
1651668596003.621,-2200.0
1651668596003.623,-2147.0
1651668596003.625,-1923.0
1651668596003.627,-1854.0
1651668596003.629,-1768.0
1651668596003.6309,-1943.0
1651668596003.6328,-2067.0
1651668596003.6348,-2244.0
1651668596003.6367,-2229.0
1651668596003.6387,-2205.0
1651668596003.6406,-1979.0
1651668596003.6426,-1872.0
1651668596003.6445,-1723.0
1651668596003.6465,-1840.0
1651668596003.6484,-1924.0
1651668596003.6504,-2099.0
1651668596003.6523,-2080.0
1651668596003.6543,-2083.0
1651668596003.6562,-1879.0
1651668596003.6582,-1773.0
1651668596003.6602,-1647.0
1651668596003.662,-1749.0
1651668596003.664,-1763.0
1651668596003.666,-2000.0
1651668596003.668,-2023.0
1651668596003.67,-2038.0
1651668596003.6719,-1869.0
1651668596003.6738,-1781.0
1651668596003.6758,-1602.0
1651668596003.6777,-1646.0
1651668596003.6797,-1708.0
1651668596003.6816,-1930.0
1651668596003.6836,-1990.0
1651668596003.6855,-2048.0
1651668596003.6875,-1892.0
1651668596003.6895,-1781.0
1651668596003.6914,-1556.0
1651668596003.6934,-1512.0
1651668596003.6953,-1487.0
1651668596003.6973,-1687.0
1651668596003.6992,-1774.0
1651668596003.7012,-1886.0
1651668596003.7031,-1761.0
1651668596003.705,-1651.0
1651668596003.707,-1405.0
1651668596003.709,-1338.0
1651668596003.711,-1289.0
1651668596003.713,-1467.0
1651668596003.7148,-1564.0
1651668596003.7168,-1699.0
1651668596003.7188,-1584.0
1651668596003.7207,-1493.0
1651668596003.7227,-1243.0
1651668596003.7246,-1133.0
1651668596003.7266,-1024.0
1651668596003.7285,-1168.0
1651668596003.7305,-1276.0
1651668596003.7324,-1445.0
1651668596003.7344,-1389.0
1651668596003.7363,-1344.0
1651668596003.7383,-1111.0
1651668596003.7402,-1006.0
1651668596003.7422,-849.0
1651668596003.7441,-944.0
1651668596003.746,-1033.0
1651668596003.748,-1214.0
1651668596003.75,-1205.0
1651668596003.752,-1206.0
1651668596003.754,-999.0
1651668596003.7559,-847.0
1651668596003.7578,-641.0
1651668596003.7598,-678.0
1651668596003.7617,-728.0
1651668596003.7637,-909.0
1651668596003.7656,-925.0
1651668596003.7676,-892.0
1651668596003.7695,-678.0
1651668596003.7715,-567.0
1651668596003.7734,-309.0
1651668596003.7754,-283.0
1651668596003.7773,-486.0
1651668596003.7793,-549.0
1651668596003.7812,-549.0
1651668596003.7832,-590.0
1651668596003.7852,-293.0
1651668596003.787,-60.0
1651668596003.789,-60.0
1651668596003.791,6.0
1651668596003.793,41.0
1651668596003.795,-170.0
1651668596003.7969,-169.0
1651668596003.7988,-233.0
1651668596003.8008,-83.0
1651668596003.8027,311.0
1651668596003.8047,311.0
1651668596003.8066,416.0
1651668596003.8086,498.0
1651668596003.8105,165.0
1651668596003.8125,165.0
1651668596003.8145,17.0
1651668596003.8164,107.0
1651668596003.8184,434.0
1651668596003.8203,434.0
1651668596003.8223,526.0
1651668596003.8242,632.0
1651668596003.8262,412.0
1651668596003.8281,412.0
1651668596003.83,245.0
1651668596003.832,307.0
1651668596003.834,570.0
1651668596003.836,570.0
1651668596003.838,654.0
1651668596003.8398,818.0
1651668596003.8418,603.0
1651668596003.8438,367.0
1651668596003.8457,121.0
1651668596003.8477,23.0
1651668596003.8496,-97.0
1651668596003.8516,97.0
1651668596003.8535,97.0
1651668596003.8555,166.0
1651668596003.8574,57.0
1651668596003.8594,-363.0
1651668596003.8613,-362.0
1651668596003.8633,-440.0
1651668596003.8652,-523.0
1651668596003.8672,-264.0
1651668596003.8691,-264.0
1651668596003.871,-107.0
1651668596003.873,-193.0
1651668596003.875,-543.0
1651668596003.877,-543.0
1651668596003.879,-789.0
1651668596003.8809,-785.0
1651668596003.8828,-637.0
1651668596003.8848,-637.0
1651668596003.8867,-615.0
1651668596003.8887,-571.0
1651668596003.8906,-819.0
1651668596003.8926,-1456.0
1651668596003.8945,-1454.0
1651668596003.8965,-1522.0
1651668596003.8984,-1564.0
1651668596003.9004,-1264.0
1651668596003.9023,-1263.0
1651668596003.9043,-1140.0
1651668596003.9062,-1265.0
1651668596003.9082,-1778.0
1651668596003.9102,-1777.0
1651668596003.912,-1956.0
1651668596003.914,-2138.0
1651668596003.916,-2100.0
1651668596003.918,-2099.0
1651668596003.92,-2026.0
1651668596003.9219,-2162.0
1651668596003.9238,-2667.0
1651668596003.9258,-2665.0
1651668596003.9277,-2860.0
1651668596003.9297,-3048.0
1651668596003.9316,-2984.0
1651668596003.9336,-2814.0
1651668596003.9355,-2869.0
1651668596003.9375,-2868.0
1651668596003.9395,-2952.0
1651668596003.9414,-3411.0
1651668596003.9434,-3611.0
1651668596003.9453,-3608.0
1651668596003.9473,-3554.0
1651668596003.9492,-3339.0
1651668596003.9512,-3335.0
1651668596003.9531,-3332.0
1651668596003.955,-3363.0
1651668596003.957,-3826.0
1651668596003.959,-4031.0
1651668596003.961,-4028.0
1651668596003.963,-3992.0
1651668596003.9648,-3740.0
1651668596003.9668,-3678.0
1651668596003.9688,-3677.0
1651668596003.9707,-3637.0
1651668596003.9727,-3855.0
1651668596003.9746,-4068.0
1651668596003.9766,-4148.0
1651668596003.9785,-3965.0
1651668596003.9805,-3823.0
1651668596003.9824,-3578.0
1651668596003.9844,-3551.0
1651668596003.9863,-3554.0
1651668596003.9883,-3769.0
1651668596003.9902,-3888.0
1651668596003.9922,-3987.0
1651668596003.9941,-3842.0
1651668596003.996,-3731.0
1651668596003.998,-3492.0
1651668596004.0,-3429.0
1651668596004.002,-3398.0
1651668596004.004,-3590.0
1651668596004.0059,-3707.0
1651668596004.0078,-3846.0
1651668596004.0098,-3755.0
1651668596004.0117,-3660.0
1651668596004.0137,-3371.0
1651668596004.0156,-3214.0
1651668596004.0176,-3110.0
1651668596004.0195,-3294.0
1651668596004.0215,-3433.0
1651668596004.0234,-3638.0
1651668596004.0254,-3608.0
1651668596004.0273,-3550.0
1651668596004.0293,-3262.0
1651668596004.0312,-3104.0
1651668596004.0332,-2958.0
1651668596004.0352,-3060.0
1651668596004.037,-3167.0
1651668596004.039,-3364.0
1651668596004.041,-3335.0
1651668596004.043,-3291.0
1651668596004.045,-3072.0
1651668596004.0469,-2974.0
1651668596004.0488,-2822.0
1651668596004.0508,-2878.0
1651668596004.0527,-2935.0
1651668596004.0547,-3119.0
1651668596004.0566,-3133.0
1651668596004.0586,-3134.0
1651668596004.0605,-2933.0
1651668596004.0625,-2805.0
1651668596004.0645,-2628.0
1651668596004.0664,-2672.0
1651668596004.0684,-2729.0
1651668596004.0703,-2986.0
1651668596004.0723,-2978.0
1651668596004.0742,-3011.0
1651668596004.0762,-2853.0
1651668596004.0781,-2648.0
1651668596004.08,-2481.0
1651668596004.082,-2464.0
1651668596004.084,-2358.0
1651668596004.086,-2568.0
1651668596004.088,-2705.0
1651668596004.0898,-2783.0
1651668596004.0918,-2539.0
1651668596004.0938,-2310.0
1651668596004.0957,-2019.0
1651668596004.0977,-1914.0
1651668596004.0996,-1810.0
1651668596004.1016,-1939.0
1651668596004.1035,-2040.0
1651668596004.1055,-2197.0
1651668596004.1074,-2125.0
1651668596004.1094,-2063.0
1651668596004.1113,-1836.0
1651668596004.1133,-1792.0
1651668596004.1152,-1757.0
1651668596004.1172,-1974.0
1651668596004.1191,-2172.0
1651668596004.121,-2417.0
1651668596004.123,-2433.0
1651668596004.125,-2415.0
1651668596004.127,-2204.0
1651668596004.129,-2121.0
1651668596004.1309,-2010.0
1651668596004.1328,-2117.0
1651668596004.1348,-2205.0
1651668596004.1367,-2406.0
1651668596004.1387,-2380.0
1651668596004.1406,-2351.0
1651668596004.1426,-2114.0
1651668596004.1445,-1985.0
1651668596004.1465,-1819.0
1651668596004.1484,-1887.0
1651668596004.1504,-1957.0
1651668596004.1523,-2179.0
1651668596004.1543,-2224.0
1651668596004.1562,-2258.0
1651668596004.1582,-2077.0
1651668596004.1602,-1972.0
1651668596004.162,-1811.0
1651668596004.164,-1886.0
1651668596004.166,-1964.0
1651668596004.168,-2213.0
1651668596004.17,-2304.0
1651668596004.1719,-2387.0
1651668596004.1738,-2190.0
1651668596004.1758,-2129.0
1651668596004.1777,-1938.0
1651668596004.1797,-1909.0
1651668596004.1816,-1899.0
1651668596004.1836,-2096.0
1651668596004.1855,-2215.0
1651668596004.1875,-2328.0
1651668596004.1895,-2194.0
1651668596004.1914,-2105.0
1651668596004.1934,-1883.0
1651668596004.1953,-1839.0
1651668596004.1973,-1801.0
1651668596004.1992,-1983.0
1651668596004.2012,-2083.0
1651668596004.2031,-2233.0
1651668596004.205,-2160.0
1651668596004.207,-2103.0
1651668596004.209,-1881.0
1651668596004.211,-1808.0
1651668596004.213,-1748.0
1651668596004.2148,-1919.0
1651668596004.2168,-2033.0
1651668596004.2188,-2208.0
1651668596004.2207,-2157.0
1651668596004.2227,-2109.0
1651668596004.2246,-1912.0
1651668596004.2266,-1855.0
1651668596004.2285,-1800.0
1651668596004.2305,-1967.0
1651668596004.2324,-2047.0
1651668596004.2344,-2189.0
1651668596004.2363,-2102.0
1651668596004.2383,-2026.0
1651668596004.2402,-1757.0
1651668596004.2422,-1609.0
1651668596004.2441,-1424.0
1651668596004.246,-1456.0
1651668596004.248,-1472.0
1651668596004.25,-1639.0
1651668596004.252,-1620.0
1651668596004.254,-1644.0
1651668596004.2559,-1509.0
1651668596004.2578,-1431.0
1651668596004.2598,-1281.0
1651668596004.2617,-1315.0
1651668596004.2637,-1329.0
1651668596004.2656,-1508.0
1651668596004.2676,-1569.0
1651668596004.2695,-1660.0
1651668596004.2715,-1418.0
1651668596004.2734,-1414.0
1651668596004.2754,-1427.0
1651668596004.2773,-1345.0
1651668596004.2793,-1512.0
1651668596004.2812,-1618.0
1651668596004.2832,-1803.0
1651668596004.2852,-1778.0
1651668596004.287,-1726.0
1651668596004.289,-1489.0
1651668596004.291,-1376.0
1651668596004.293,-1209.0
1651668596004.295,-1267.0
1651668596004.2969,-1319.0
1651668596004.2988,-1475.0
1651668596004.3008,-1432.0
1651668596004.3027,-1395.0
1651668596004.3047,-1197.0
1651668596004.3066,-1082.0
1651668596004.3086,-889.0
1651668596004.3105,-942.0
1651668596004.3125,-960.0
1651668596004.3145,-1066.0
1651668596004.3164,-1260.0
1651668596004.3184,-1717.0
1651668596004.3203,-1859.0
1651668596004.3223,-1868.0
1651668596004.3242,-1655.0
1651668596004.3262,-1599.0
1651668596004.3281,-1578.0
1651668596004.33,-1786.0
1651668596004.332,-1888.0
1651668596004.334,-1764.0
1651668596004.336,-1708.0
1651668596004.338,-1502.0
1651668596004.3398,-1436.0
1651668596004.3418,-1333.0
1651668596004.3438,-1443.0
1651668596004.3457,-1520.0
1651668596004.3477,-1744.0
1651668596004.3496,-1793.0
1651668596004.3516,-1850.0
1651668596004.3535,-1717.0
1651668596004.3555,-1647.0
1651668596004.3574,-1526.0
1651668596004.3594,-1596.0
1651668596004.3613,-1647.0
1651668596004.3633,-1815.0
1651668596004.3652,-1830.0
1651668596004.3672,-1881.0
1651668596004.3691,-1753.0
1651668596004.371,-1711.0
1651668596004.373,-1580.0
1651668596004.375,-1580.0
1651668596004.377,-1680.0
1651668596004.379,-1908.0
1651668596004.3809,-1934.0
1651668596004.3828,-1989.0
1651668596004.3848,-1870.0
1651668596004.3867,-1847.0
1651668596004.3887,-1717.0
1651668596004.3906,-1759.0
1651668596004.3926,-1775.0
1651668596004.3945,-1938.0
1651668596004.3965,-1989.0
1651668596004.3984,-2085.0
1651668596004.4004,-1986.0
1651668596004.4023,-1932.0
1651668596004.4043,-1756.0
1651668596004.4062,-1766.0
1651668596004.4082,-1728.0
1651668596004.4102,-1903.0
1651668596004.412,-2012.0
1651668596004.414,-2200.0
1651668596004.416,-2220.0
1651668596004.418,-2277.0
1651668596004.42,-2142.0
1651668596004.4219,-2127.0
1651668596004.4238,-2058.0
1651668596004.4258,-2180.0
1651668596004.4277,-2238.0
1651668596004.4297,-2395.0
1651668596004.4316,-2368.0
1651668596004.4336,-2412.0
1651668596004.4355,-2303.0
1651668596004.4375,-2296.0
1651668596004.4395,-2226.0
1651668596004.4414,-2326.0
1651668596004.4434,-2361.0
1651668596004.4453,-2504.0
1651668596004.4473,-2452.0
1651668596004.4492,-2401.0
1651668596004.4512,-2185.0
1651668596004.4531,-2063.0
1651668596004.455,-1868.0
1651668596004.457,-1830.0
1651668596004.459,-1716.0
1651668596004.461,-1766.0
1651668596004.463,-1654.0
1651668596004.4648,-1603.0
1651668596004.4668,-1462.0
1651668596004.4688,-1407.0
1651668596004.4707,-1377.0
1651668596004.4727,-1570.0
1651668596004.4746,-1799.0
1651668596004.4766,-2165.0
1651668596004.4785,-2202.0
1651668596004.4805,-2273.0
1651668596004.4824,-2332.0
1651668596004.4844,-2154.0
1651668596004.4863,-2058.0
1651668596004.4883,-1932.0
1651668596004.4902,-2008.0
1651668596004.4922,-1972.0
1651668596004.4941,-2008.0
1651668596004.496,-1876.0
1651668596004.498,-1766.0
1651668596004.5,-1494.0
1651668596004.502,-1348.0
1651668596004.504,-1157.0
1651668596004.5059,-1155.0
1651668596004.5078,-1124.0
1651668596004.5098,-1246.0
1651668596004.5117,-1241.0
1651668596004.5137,-1319.0
1651668596004.5156,-1259.0
1651668596004.5176,-1308.0
1651668596004.5195,-1293.0
1651668596004.5215,-1440.0
1651668596004.5234,-1526.0
1651668596004.5254,-1741.0
1651668596004.5273,-1786.0
1651668596004.5293,-1863.0
1651668596004.5312,-1768.0
1651668596004.5332,-1716.0
1651668596004.5352,-1530.0
1651668596004.537,-1446.0
1651668596004.539,-1482.0
1651668596004.541,-1582.0
1651668596004.543,-1606.0
1651668596004.545,-1829.0
1651668596004.5469,-1784.0
1651668596004.5488,-1726.0
1651668596004.5508,-1761.0
1651668596004.5527,-1730.0
1651668596004.5547,-1837.0
1651668596004.5566,-1866.0
1651668596004.5586,-1976.0
1651668596004.5605,-1914.0
1651668596004.5625,-1935.0
1651668596004.5645,-1746.0
1651668596004.5664,-1683.0
1651668596004.5684,-1515.0
1651668596004.5703,-1507.0
1651668596004.5723,-1476.0
1651668596004.5742,-1585.0
1651668596004.5762,-1545.0
1651668596004.5781,-1637.0
1651668596004.58,-1501.0
1651668596004.582,-1497.0
1651668596004.584,-1486.0
1651668596004.586,-1664.0
1651668596004.588,-1839.0
1651668596004.5898,-2073.0
1651668596004.5918,-2138.0
1651668596004.5938,-2273.0
1651668596004.5957,-2185.0
1651668596004.5977,-2140.0
1651668596004.5996,-1982.0
1651668596004.6016,-1964.0
1651668596004.6035,-1877.0
1651668596004.6055,-1974.0
1651668596004.6074,-1981.0
1651668596004.6094,-2061.0
1651668596004.6113,-1956.0
1651668596004.6133,-1921.0
1651668596004.6152,-1759.0
1651668596004.6172,-1731.0
1651668596004.6191,-1655.0
1651668596004.621,-1753.0
1651668596004.623,-1761.0
1651668596004.625,-1826.0
1651668596004.627,-1726.0
1651668596004.629,-1668.0
1651668596004.6309,-1482.0
1651668596004.6328,-1416.0
1651668596004.6348,-1286.0
1651668596004.6367,-1372.0
1651668596004.6387,-1378.0
1651668596004.6406,-1536.0
1651668596004.6426,-1551.0
1651668596004.6445,-1604.0
1651668596004.6465,-1523.0
1651668596004.6484,-1512.0
1651668596004.6504,-1450.0
1651668596004.6523,-1549.0
1651668596004.6543,-1596.0
1651668596004.6562,-1749.0
1651668596004.6582,-1757.0
1651668596004.6602,-1812.0
1651668596004.662,-1672.0
1651668596004.664,-1642.0
1651668596004.666,-1494.0
1651668596004.668,-1512.0
1651668596004.67,-1496.0
1651668596004.6719,-1595.0
1651668596004.6738,-1577.0
1651668596004.6758,-1657.0
1651668596004.6777,-1580.0
1651668596004.6797,-1553.0
1651668596004.6816,-1508.0
1651668596004.6836,-1478.0
1651668596004.6855,-1584.0
1651668596004.6875,-1621.0
1651668596004.6895,-1797.0
1651668596004.6914,-1779.0
1651668596004.6934,-1808.0
1651668596004.6953,-1676.0
1651668596004.6973,-1639.0
1651668596004.6992,-1516.0
1651668596004.7012,-1545.0
1651668596004.7031,-1529.0
1651668596004.705,-1671.0
1651668596004.707,-1673.0
1651668596004.709,-1705.0
1651668596004.711,-1556.0
1651668596004.713,-1505.0
1651668596004.7148,-1384.0
1651668596004.7168,-1420.0
1651668596004.7188,-1425.0
1651668596004.7207,-1586.0
1651668596004.7227,-1603.0
1651668596004.7246,-1704.0
1651668596004.7266,-1618.0
1651668596004.7285,-1588.0
1651668596004.7305,-1460.0
1651668596004.7324,-1487.0
1651668596004.7344,-1454.0
1651668596004.7363,-1582.0
1651668596004.7383,-1586.0
1651668596004.7402,-1675.0
1651668596004.7422,-1580.0
1651668596004.7441,-1547.0
1651668596004.746,-1399.0
1651668596004.748,-1406.0
1651668596004.75,-1377.0
1651668596004.752,-1505.0
1651668596004.754,-1553.0
1651668596004.7559,-1698.0
1651668596004.7578,-1669.0
1651668596004.7598,-1673.0
1651668596004.7617,-1533.0
1651668596004.7637,-1493.0
1651668596004.7656,-1396.0
1651668596004.7676,-1502.0
1651668596004.7695,-1530.0
1651668596004.7715,-1655.0
1651668596004.7734,-1600.0
1651668596004.7754,-1611.0
1651668596004.7773,-1482.0
1651668596004.7793,-1465.0
1651668596004.7812,-1394.0
1651668596004.7832,-1465.0
1651668596004.7852,-1479.0
1651668596004.787,-1527.0
1651668596004.789,-1618.0
1651668596004.791,-1636.0
1651668596004.793,-1479.0
1651668596004.795,-1462.0
1651668596004.7969,-1355.0
1651668596004.7988,-1428.0
1651668596004.8008,-1457.0
1651668596004.8027,-1599.0
1651668596004.8047,-1586.0
1651668596004.8066,-1618.0
1651668596004.8086,-1482.0
1651668596004.8105,-1460.0
1651668596004.8125,-1358.0
1651668596004.8145,-1398.0
1651668596004.8164,-1409.0
1651668596004.8184,-1586.0
1651668596004.8203,-1624.0
1651668596004.8223,-1699.0
1651668596004.8242,-1574.0
1651668596004.8262,-1519.0
1651668596004.8281,-1383.0
1651668596004.83,-1417.0
1651668596004.832,-1396.0
1651668596004.834,-1544.0
1651668596004.836,-1566.0
1651668596004.838,-1640.0
1651668596004.8398,-1537.0
1651668596004.8418,-1519.0
1651668596004.8438,-1376.0
1651668596004.8457,-1376.0
1651668596004.8477,-1337.0
1651668596004.8496,-1474.0
1651668596004.8516,-1496.0
1651668596004.8535,-1589.0
1651668596004.8555,-1529.0
1651668596004.8574,-1533.0
1651668596004.8594,-1385.0
1651668596004.8613,-1376.0
1651668596004.8633,-1321.0
1651668596004.8652,-1438.0
1651668596004.8672,-1480.0
1651668596004.8691,-1626.0
1651668596004.871,-1591.0
1651668596004.873,-1609.0
1651668596004.875,-1440.0
1651668596004.877,-1413.0
1651668596004.879,-1326.0
1651668596004.8809,-1427.0
1651668596004.8828,-1483.0
1651668596004.8848,-1651.0
1651668596004.8867,-1566.0
1651668596004.8887,-1545.0
1651668596004.8906,-1454.0
1651668596004.8926,-1424.0
1651668596004.8945,-1323.0
1651668596004.8965,-1406.0
1651668596004.8984,-1416.0
1651668596004.9004,-1553.0
1651668596004.9023,-1537.0
1651668596004.9043,-1588.0
1651668596004.9062,-1483.0
1651668596004.9082,-1434.0
1651668596004.9102,-1299.0
1651668596004.912,-1363.0
1651668596004.914,-1367.0
1651668596004.916,-1504.0
1651668596004.918,-1529.0
1651668596004.92,-1604.0
1651668596004.9219,-1494.0
1651668596004.9238,-1479.0
1651668596004.9258,-1352.0
1651668596004.9277,-1362.0
1651668596004.9297,-1347.0
1651668596004.9316,-1494.0
1651668596004.9336,-1498.0
1651668596004.9355,-1580.0
1651668596004.9375,-1504.0
1651668596004.9395,-1480.0
1651668596004.9414,-1345.0
1651668596004.9434,-1355.0
1651668596004.9453,-1314.0
1651668596004.9473,-1436.0
1651668596004.9492,-1468.0
1651668596004.9512,-1586.0
1651668596004.9531,-1519.0
1651668596004.955,-1482.0
1651668596004.957,-1338.0
1651668596004.959,-1352.0
1651668596004.961,-1293.0
1651668596004.963,-1405.0
1651668596004.9648,-1440.0
1651668596004.9668,-1564.0
1651668596004.9688,-1508.0
1651668596004.9707,-1500.0
1651668596004.9727,-1344.0
1651668596004.9746,-1347.0
1651668596004.9766,-1286.0
1651668596004.9785,-1388.0
1651668596004.9805,-1413.0
1651668596004.9824,-1553.0
1651668596004.9844,-1527.0
1651668596004.9863,-1540.0
1651668596004.9883,-1407.0
1651668596004.9902,-1399.0
1651668596004.9922,-1310.0
1651668596004.9941,-1303.0
1651668596004.996,-1322.0
1651668596004.998,-1501.0
1651668596005.0,-1508.0
1651668596005.002,-1558.0
1651668596005.004,-1421.0
1651668596005.0059,-1370.0
1651668596005.0078,-1257.0
1651668596005.0098,-1308.0
1651668596005.0117,-1318.0
1651668596005.0137,-1468.0
1651668596005.0156,-1471.0
1651668596005.0176,-1553.0
1651668596005.0195,-1434.0
1651668596005.0215,-1388.0
1651668596005.0234,-1270.0
1651668596005.0254,-1307.0
1651668596005.0273,-1292.0
1651668596005.0293,-1438.0
1651668596005.0312,-1442.0
1651668596005.0332,-1536.0
1651668596005.0352,-1456.0
1651668596005.037,-1440.0
1651668596005.039,-1311.0
1651668596005.041,-1312.0
1651668596005.043,-1272.0
1651668596005.045,-1398.0
1651668596005.0469,-1421.0
1651668596005.0488,-1531.0
1651668596005.0508,-1467.0
1651668596005.0527,-1456.0
1651668596005.0547,-1327.0
1651668596005.0566,-1321.0
1651668596005.0586,-1254.0
1651668596005.0605,-1352.0
1651668596005.0625,-1376.0
1651668596005.0645,-1491.0
1651668596005.0664,-1451.0
1651668596005.0684,-1472.0
1651668596005.0703,-1336.0
1651668596005.0723,-1315.0
1651668596005.0742,-1232.0
1651668596005.0762,-1319.0
1651668596005.0781,-1338.0
1651668596005.08,-1468.0
1651668596005.082,-1453.0
1651668596005.084,-1496.0
1651668596005.086,-1365.0
1651668596005.088,-1332.0
1651668596005.0898,-1212.0
1651668596005.0918,-1290.0
1651668596005.0938,-1304.0
1651668596005.0957,-1440.0
1651668596005.0977,-1447.0
1651668596005.0996,-1533.0
1651668596005.1016,-1348.0
1651668596005.1035,-1297.0
1651668596005.1055,-1220.0
1651668596005.1074,-1263.0
1651668596005.1094,-1274.0
1651668596005.1113,-1413.0
1651668596005.1133,-1420.0
1651668596005.1152,-1490.0
1651668596005.1172,-1385.0
1651668596005.1191,-1354.0
1651668596005.121,-1224.0
1651668596005.123,-1252.0
1651668596005.125,-1234.0
1651668596005.127,-1367.0
1651668596005.129,-1391.0
1651668596005.1309,-1485.0
1651668596005.1328,-1394.0
1651668596005.1348,-1374.0
1651668596005.1367,-1231.0
1651668596005.1387,-1239.0
1651668596005.1406,-1203.0
1651668596005.1426,-1333.0
1651668596005.1445,-1356.0
1651668596005.1465,-1456.0
1651668596005.1484,-1391.0
1651668596005.1504,-1395.0
1651668596005.1523,-1256.0
1651668596005.1543,-1250.0
1651668596005.1562,-1192.0
1651668596005.1582,-1299.0
1651668596005.1602,-1314.0
1651668596005.162,-1435.0
1651668596005.164,-1381.0
1651668596005.166,-1387.0
1651668596005.168,-1257.0
1651668596005.17,-1225.0
1651668596005.1719,-1132.0
1651668596005.1738,-1223.0
1651668596005.1758,-1267.0
1651668596005.1777,-1409.0
1651668596005.1797,-1383.0
1651668596005.1816,-1421.0
1651668596005.1836,-1283.0
1651668596005.1855,-1254.0
1651668596005.1875,-1137.0
1651668596005.1895,-1213.0
1651668596005.1914,-1252.0
1651668596005.1934,-1394.0
1651668596005.1953,-1383.0
1651668596005.1973,-1467.0
1651668596005.1992,-1282.0
1651668596005.2012,-1206.0
1651668596005.2031,-1234.0
1651668596005.205,-1157.0
1651668596005.207,-1275.0
1651668596005.209,-1323.0
1651668596005.211,-1456.0
1651668596005.213,-1403.0
1651668596005.2148,-1395.0
1651668596005.2168,-1253.0
1651668596005.2188,-1239.0
1651668596005.2207,-1158.0
1651668596005.2227,-1249.0
1651668596005.2246,-1275.0
1651668596005.2266,-1409.0
1651668596005.2285,-1387.0
1651668596005.2305,-1420.0
1651668596005.2324,-1287.0
1651668596005.2344,-1261.0
1651668596005.2363,-1157.0
1651668596005.2383,-1232.0
1651668596005.2402,-1234.0
1651668596005.2422,-1373.0
1651668596005.2441,-1363.0
1651668596005.246,-1399.0
1651668596005.248,-1286.0
1651668596005.25,-1275.0
1651668596005.252,-1159.0
1651668596005.254,-1212.0
1651668596005.2559,-1208.0
1651668596005.2578,-1338.0
1651668596005.2598,-1356.0
1651668596005.2617,-1436.0
1651668596005.2637,-1332.0
1651668596005.2656,-1308.0
1651668596005.2676,-1186.0
1651668596005.2695,-1212.0
1651668596005.2715,-1179.0
1651668596005.2734,-1312.0
1651668596005.2754,-1330.0
1651668596005.2773,-1418.0
1651668596005.2793,-1329.0
1651668596005.2812,-1311.0
1651668596005.2832,-1174.0
1651668596005.2852,-1184.0
1651668596005.287,-1151.0
1651668596005.289,-1281.0
1651668596005.291,-1307.0
1651668596005.293,-1409.0
1651668596005.295,-1344.0
1651668596005.2969,-1343.0
1651668596005.2988,-1209.0
1651668596005.3008,-1205.0
1651668596005.3027,-1170.0
1651668596005.3047,-1212.0
1651668596005.3066,-1221.0
1651668596005.3086,-1392.0
1651668596005.3105,-1354.0
1651668596005.3125,-1366.0
1651668596005.3145,-1225.0
1651668596005.3164,-1199.0
1651668596005.3184,-1101.0
1651668596005.3203,-1188.0
1651668596005.3223,-1219.0
1651668596005.3242,-1354.0
1651668596005.3262,-1338.0
1651668596005.3281,-1377.0
1651668596005.33,-1243.0
1651668596005.332,-1210.0
1651668596005.334,-1100.0
1651668596005.336,-1163.0
1651668596005.338,-1166.0
1651668596005.3398,-1305.0
1651668596005.3418,-1314.0
1651668596005.3438,-1372.0
1651668596005.3457,-1256.0
1651668596005.3477,-1228.0
1651668596005.3496,-1096.0
1651668596005.3516,-1130.0
1651668596005.3535,-1126.0
1651668596005.3555,-1274.0
1651668596005.3574,-1296.0
1651668596005.3594,-1361.0
1651668596005.3613,-1252.0
1651668596005.3633,-1235.0
1651668596005.3652,-1103.0
1651668596005.3672,-1108.0
1651668596005.3691,-1086.0
1651668596005.371,-1227.0
1651668596005.373,-1243.0
1651668596005.375,-1354.0
1651668596005.377,-1293.0
1651668596005.379,-1267.0
1651668596005.3809,-1115.0
1651668596005.3828,-1111.0
1651668596005.3848,-1070.0
1651668596005.3867,-1210.0
1651668596005.3887,-1259.0
1651668596005.3906,-1359.0
1651668596005.3926,-1276.0
1651668596005.3945,-1282.0
1651668596005.3965,-1147.0
1651668596005.3984,-1137.0
1651668596005.4004,-1090.0
1651668596005.4023,-1201.0
1651668596005.4043,-1183.0
1651668596005.4062,-1354.0
1651668596005.4082,-1332.0
1651668596005.4102,-1334.0
1651668596005.412,-1198.0
1651668596005.414,-1166.0
1651668596005.416,-1063.0
1651668596005.418,-1154.0
1651668596005.42,-1172.0
1651668596005.4219,-1326.0
1651668596005.4238,-1304.0
1651668596005.4258,-1323.0
1651668596005.4277,-1190.0
1651668596005.4297,-1154.0
1651668596005.4316,-1059.0
1651668596005.4336,-1130.0
1651668596005.4355,-1157.0
1651668596005.4375,-1304.0
1651668596005.4395,-1293.0
1651668596005.4414,-1344.0
1651668596005.4434,-1224.0
1651668596005.4453,-1195.0
1651668596005.4473,-1077.0
1651668596005.4492,-1124.0
1651668596005.4512,-1125.0
1651668596005.4531,-1264.0
1651668596005.455,-1272.0
1651668596005.457,-1344.0
1651668596005.459,-1227.0
1651668596005.461,-1201.0
1651668596005.463,-1086.0
1651668596005.4648,-1108.0
1651668596005.4668,-1075.0
1651668596005.4688,-1208.0
1651668596005.4707,-1239.0
1651668596005.4727,-1337.0
1651668596005.4746,-1243.0
1651668596005.4766,-1231.0
1651668596005.4785,-1097.0
1651668596005.4805,-1100.0
1651668596005.4824,-1042.0
1651668596005.4844,-1163.0
1651668596005.4863,-1194.0
1651668596005.4883,-1332.0
1651668596005.4902,-1282.0
1651668596005.4922,-1271.0
1651668596005.4941,-1125.0
1651668596005.496,-1104.0
1651668596005.498,-1031.0
1651668596005.5,-1151.0
1651668596005.502,-1195.0
1651668596005.504,-1338.0
1651668596005.5059,-1301.0
1651668596005.5078,-1224.0
1651668596005.5098,-1104.0
1651668596005.5117,-1099.0
1651668596005.5137,-1017.0
1651668596005.5156,-1100.0
1651668596005.5176,-1110.0
1651668596005.5195,-1253.0
1651668596005.5215,-1239.0
1651668596005.5234,-1275.0
1651668596005.5254,-1141.0
1651668596005.5273,-1124.0
1651668596005.5293,-1023.0
1651668596005.5312,-1082.0
1651668596005.5332,-1092.0
1651668596005.5352,-1238.0
1651668596005.537,-1243.0
1651668596005.539,-1303.0
1651668596005.541,-1176.0
1651668596005.543,-1132.0
1651668596005.545,-999.0
1651668596005.5469,-1044.0
1651668596005.5488,-1045.0
1651668596005.5508,-1210.0
1651668596005.5527,-1221.0
1651668596005.5547,-1278.0
1651668596005.5566,-1177.0
1651668596005.5586,-1146.0
1651668596005.5605,-1026.0
1651668596005.5625,-1059.0
1651668596005.5645,-1048.0
1651668596005.5664,-1179.0
1651668596005.5684,-1184.0
1651668596005.5703,-1281.0
1651668596005.5723,-1209.0
1651668596005.5742,-1199.0
1651668596005.5762,-1052.0
1651668596005.5781,-1059.0
1651668596005.58,-1020.0
1651668596005.582,-1137.0
1651668596005.584,-1166.0
1651668596005.586,-1272.0
1651668596005.588,-1214.0
1651668596005.5898,-1212.0
1651668596005.5918,-1071.0
1651668596005.5938,-1082.0
1651668596005.5957,-1019.0
1651668596005.5977,-1129.0
1651668596005.5996,-1154.0
1651668596005.6016,-1276.0
1651668596005.6035,-1235.0
1651668596005.6055,-1242.0
1651668596005.6074,-1096.0
1651668596005.6094,-1092.0
1651668596005.6113,-964.0
1651668596005.6133,-1015.0
1651668596005.6152,-1187.0
1651668596005.6172,-1197.0
1651668596005.6191,-1272.0
1651668596005.621,-1192.0
1651668596005.623,-1169.0
1651668596005.625,-1033.0
1651668596005.627,-1056.0
1651668596005.629,-1006.0
1651668596005.6309,-1129.0
1651668596005.6328,-1165.0
1651668596005.6348,-1279.0
1651668596005.6367,-1217.0
1651668596005.6387,-1208.0
1651668596005.6406,-1057.0
1651668596005.6426,-1039.0
1651668596005.6445,-966.0
1651668596005.6465,-1077.0
1651668596005.6484,-1101.0
1651668596005.6504,-1231.0
1651668596005.6523,-1192.0
1651668596005.6543,-1214.0
1651668596005.6562,-1075.0
1651668596005.6582,-1044.0
1651668596005.6602,-950.0
1651668596005.662,-1048.0
1651668596005.664,-1068.0
1651668596005.666,-1187.0
1651668596005.668,-1180.0
1651668596005.67,-1213.0
1651668596005.6719,-1092.0
1651668596005.6738,-1064.0
1651668596005.6758,-951.0
1651668596005.6777,-1009.0
1651668596005.6797,-1016.0
1651668596005.6816,-1157.0
1651668596005.6836,-1161.0
1651668596005.6855,-1220.0
1651668596005.6875,-1117.0
1651668596005.6895,-1081.0
1651668596005.6914,-961.0
1651668596005.6934,-1001.0
1651668596005.6953,-994.0
1651668596005.6973,-1137.0
1651668596005.6992,-1141.0
1651668596005.7012,-1220.0
1651668596005.7031,-1139.0
1651668596005.705,-1103.0
1651668596005.707,-962.0
1651668596005.709,-987.0
1651668596005.711,-976.0
1651668596005.713,-1135.0
1651668596005.7148,-1049.0
1651668596005.7168,-1180.0
1651668596005.7188,-1250.0
1651668596005.7207,-1100.0
1651668596005.7227,-1059.0
1651668596005.7246,-944.0
1651668596005.7266,-1001.0
1651668596005.7285,-1011.0
1651668596005.7305,-1157.0
1651668596005.7324,-1170.0
1651668596005.7344,-1225.0
1651668596005.7363,-1112.0
1651668596005.7383,-1093.0
1651668596005.7402,-972.0
1651668596005.7422,-1008.0
1651668596005.7441,-987.0
1651668596005.746,-1125.0
1651668596005.748,-1133.0
1651668596005.75,-1212.0
1651668596005.752,-1130.0
1651668596005.754,-1119.0
1651668596005.7559,-979.0
1651668596005.7578,-980.0
1651668596005.7598,-939.0
1651668596005.7617,-1079.0
1651668596005.7637,-1103.0
1651668596005.7656,-1201.0
1651668596005.7676,-1128.0
1651668596005.7695,-1106.0
1651668596005.7715,-972.0
1651668596005.7734,-988.0
1651668596005.7754,-947.0
1651668596005.7773,-1073.0
1651668596005.7793,-1100.0
1651668596005.7812,-1213.0
1651668596005.7832,-1147.0
1651668596005.7852,-1141.0
1651668596005.787,-995.0
1651668596005.789,-991.0
1651668596005.791,-920.0
1651668596005.793,-1008.0
1651668596005.795,-1048.0
1651668596005.7969,-1186.0
1651668596005.7988,-1154.0
1651668596005.8008,-1157.0
1651668596005.8027,-1017.0
1651668596005.8047,-1011.0
1651668596005.8066,-913.0
1651668596005.8086,-983.0
1651668596005.8105,-982.0
1651668596005.8125,-1114.0
1651668596005.8145,-1186.0
1651668596005.8164,-1169.0
1651668596005.8184,-1073.0
1651668596005.8203,-979.0
1651668596005.8223,-925.0
1651668596005.8242,-921.0
1651668596005.8262,-987.0
1651668596005.8281,-1082.0
1651668596005.83,-1143.0
1651668596005.832,-1154.0
1651668596005.834,-1096.0
1651668596005.836,-1001.0
1651668596005.838,-936.0
1651668596005.8398,-926.0
1651668596005.8418,-968.0
1651668596005.8438,-1050.0
1651668596005.8457,-1122.0
1651668596005.8477,-1135.0
1651668596005.8496,-1084.0
1651668596005.8516,-1009.0
1651668596005.8535,-935.0
1651668596005.8555,-898.0
1651668596005.8574,-939.0
1651668596005.8594,-1024.0
1651668596005.8613,-1111.0
1651668596005.8633,-1150.0
1651668596005.8652,-1124.0
1651668596005.8672,-1056.0
1651668596005.8691,-965.0
1651668596005.871,-917.0
1651668596005.873,-943.0
1651668596005.875,-1019.0
1651668596005.877,-1089.0
1651668596005.879,-1135.0
1651668596005.8809,-1150.0
1651668596005.8828,-1088.0
1651668596005.8848,-1004.0
1651668596005.8867,-926.0
1651668596005.8887,-914.0
1651668596005.8906,-958.0
1651668596005.8926,-1056.0
1651668596005.8945,-1129.0
1651668596005.8965,-1135.0
1651668596005.8984,-1092.0
1651668596005.9004,-1031.0
1651668596005.9023,-964.0
1651668596005.9043,-928.0
1651668596005.9062,-954.0
1651668596005.9082,-1016.0
1651668596005.9102,-1095.0
1651668596005.912,-1126.0
1651668596005.914,-1118.0
1651668596005.916,-1063.0
1651668596005.918,-849.0
1651668596005.92,-874.0
1651668596005.9219,-954.0
1651668596005.9238,-946.0
1651668596005.9258,-1088.0
1651668596005.9277,-1089.0
1651668596005.9297,-1147.0
1651668596005.9316,-1041.0
1651668596005.9336,-1016.0
1651668596005.9355,-877.0
1651668596005.9375,-900.0
1651668596005.9395,-907.0
1651668596005.9414,-1070.0
1651668596005.9434,-1071.0
1651668596005.9453,-1125.0
1651668596005.9473,-1026.0
1651668596005.9492,-1015.0
1651668596005.9512,-889.0
1651668596005.9531,-910.0
1651668596005.955,-884.0
1651668596005.957,-1016.0
1651668596005.959,-1042.0
1651668596005.961,-1136.0
1651668596005.963,-1053.0
1651668596005.9648,-1042.0
1651668596005.9668,-911.0
1651668596005.9688,-917.0
1651668596005.9707,-849.0
1651668596005.9727,-955.0
1651668596005.9746,-980.0
1651668596005.9766,-1108.0
1651668596005.9785,-1048.0
1651668596005.9805,-1056.0
1651668596005.9824,-933.0
1651668596005.9844,-946.0
1651668596005.9863,-881.0
1651668596005.9883,-979.0
1651668596005.9902,-994.0
1651668596005.9922,-1111.0
1651668596005.9941,-1070.0
1651668596005.996,-1075.0
1651668596005.998,-949.0
1651668596006.0,-940.0
1651668596006.002,-851.0
1651668596006.004,-932.0
1651668596006.0059,-942.0
1651668596006.0078,-1071.0
1651668596006.0098,-1055.0
1651668596006.0117,-1114.0
1651668596006.0137,-971.0
1651668596006.0156,-935.0
1651668596006.0176,-840.0
1651668596006.0195,-915.0
1651668596006.0215,-910.0
1651668596006.0234,-1055.0
1651668596006.0254,-1064.0
1651668596006.0273,-1121.0
1651668596006.0293,-1005.0
1651668596006.0312,-977.0
1651668596006.0332,-847.0
1651668596006.0352,-914.0
1651668596006.037,-913.0
1651668596006.039,-1037.0
1651668596006.041,-1045.0
1651668596006.043,-1111.0
1651668596006.045,-1012.0
1651668596006.0469,-993.0
1651668596006.0488,-871.0
1651668596006.0508,-899.0
1651668596006.0527,-863.0
1651668596006.0547,-986.0
1651668596006.0566,-1005.0
1651668596006.0586,-1139.0
1651668596006.0605,-1008.0
1651668596006.0625,-971.0
1651668596006.0645,-887.0
1651668596006.0664,-891.0
1651668596006.0684,-818.0
1651668596006.0703,-939.0
1651668596006.0723,-972.0
1651668596006.0742,-1081.0
1651668596006.0762,-1019.0
1651668596006.0781,-1034.0
1651668596006.08,-896.0
1651668596006.082,-873.0
1651668596006.084,-801.0
1651668596006.086,-910.0
1651668596006.088,-949.0
1651668596006.0898,-1084.0
1651668596006.0918,-1034.0
1651668596006.0938,-1045.0
1651668596006.0957,-907.0
1651668596006.0977,-898.0
1651668596006.0996,-812.0
1651668596006.1016,-881.0
1651668596006.1035,-889.0
1651668596006.1055,-1028.0
1651668596006.1074,-1015.0
1651668596006.1094,-1067.0
1651668596006.1113,-958.0
1651668596006.1133,-931.0
1651668596006.1152,-815.0
1651668596006.1172,-877.0
1651668596006.1191,-877.0
1651668596006.121,-1034.0
1651668596006.123,-1048.0
1651668596006.125,-1097.0
1651668596006.127,-869.0
1651668596006.129,-899.0
1651668596006.1309,-915.0
1651668596006.1328,-812.0
1651668596006.1348,-910.0
1651668596006.1367,-943.0
1651668596006.1387,-1057.0
1651668596006.1406,-1022.0
1651668596006.1426,-1052.0
1651668596006.1445,-914.0
1651668596006.1465,-906.0
1651668596006.1484,-820.0
1651668596006.1504,-895.0
1651668596006.1523,-898.0
1651668596006.1543,-1031.0
1651668596006.1562,-1031.0
1651668596006.1582,-1070.0
1651668596006.1602,-943.0
1651668596006.162,-913.0
1651668596006.164,-809.0
1651668596006.166,-878.0
1651668596006.168,-881.0
1651668596006.17,-1005.0
1651668596006.1719,-1006.0
1651668596006.1738,-1070.0
1651668596006.1758,-950.0
1651668596006.1777,-917.0
1651668596006.1797,-800.0
1651668596006.1816,-858.0
1651668596006.1836,-848.0
1651668596006.1855,-994.0
1651668596006.1875,-1004.0
1651668596006.1895,-1059.0
1651668596006.1914,-957.0
1651668596006.1934,-944.0
1651668596006.1953,-813.0
1651668596006.1973,-838.0
1651668596006.1992,-807.0
1651668596006.2012,-936.0
1651668596006.2031,-971.0
1651668596006.205,-1049.0
1651668596006.207,-966.0
1651668596006.209,-975.0
1651668596006.211,-841.0
1651668596006.213,-822.0
1651668596006.2148,-780.0
1651668596006.2168,-920.0
1651668596006.2188,-933.0
1651668596006.2207,-1024.0
1651668596006.2227,-973.0
1651668596006.2246,-988.0
1651668596006.2266,-841.0
1651668596006.2285,-820.0
1651668596006.2305,-772.0
1651668596006.2324,-877.0
1651668596006.2344,-847.0
1651668596006.2363,-1019.0
1651668596006.2383,-1005.0
1651668596006.2402,-1004.0
1651668596006.2422,-862.0
1651668596006.2441,-848.0
1651668596006.246,-774.0
1651668596006.248,-859.0
1651668596006.25,-871.0
1651668596006.252,-1011.0
1651668596006.254,-986.0
1651668596006.2559,-1017.0
1651668596006.2578,-900.0
1651668596006.2598,-887.0
1651668596006.2617,-785.0
1651668596006.2637,-848.0
1651668596006.2656,-844.0
1651668596006.2676,-977.0
1651668596006.2695,-964.0
1651668596006.2715,-1033.0
1651668596006.2734,-942.0
1651668596006.2754,-914.0
1651668596006.2773,-789.0
1651668596006.2793,-836.0
1651668596006.2812,-813.0
1651668596006.2832,-947.0
1651668596006.2852,-969.0
1651668596006.287,-1045.0
1651668596006.289,-947.0
1651668596006.291,-937.0
1651668596006.293,-802.0
1651668596006.295,-820.0
1651668596006.2969,-787.0
1651668596006.2988,-907.0
1651668596006.3008,-929.0
1651668596006.3027,-1012.0
1651668596006.3047,-933.0
1651668596006.3066,-937.0
1651668596006.3086,-807.0
1651668596006.3105,-815.0
1651668596006.3125,-758.0
1651668596006.3145,-866.0
1651668596006.3164,-892.0
1651668596006.3184,-997.0
1651668596006.3203,-932.0
1651668596006.3223,-944.0
1651668596006.3242,-823.0
1651668596006.3262,-819.0
1651668596006.3281,-753.0
1651668596006.33,-842.0
1651668596006.332,-862.0
1651668596006.334,-991.0
1651668596006.336,-940.0
1651668596006.338,-918.0
1651668596006.3398,-859.0
1651668596006.3418,-859.0
1651668596006.3438,-758.0
1651668596006.3457,-834.0
1651668596006.3477,-851.0
1651668596006.3496,-969.0
1651668596006.3516,-922.0
1651668596006.3535,-960.0
1651668596006.3555,-840.0
1651668596006.3574,-834.0
1651668596006.3594,-740.0
1651668596006.3613,-804.0
1651668596006.3633,-808.0
1651668596006.3652,-944.0
1651668596006.3672,-942.0
1651668596006.3691,-997.0
1651668596006.371,-895.0
1651668596006.373,-885.0
1651668596006.375,-767.0
1651668596006.377,-812.0
1651668596006.379,-797.0
1651668596006.3809,-924.0
1651668596006.3828,-925.0
1651668596006.3848,-998.0
1651668596006.3867,-907.0
1651668596006.3887,-899.0
1651668596006.3906,-762.0
1651668596006.3926,-793.0
1651668596006.3945,-774.0
1651668596006.3965,-902.0
1651668596006.3984,-920.0
1651668596006.4004,-1011.0
1651668596006.4023,-940.0
1651668596006.4043,-932.0
1651668596006.4062,-797.0
1651668596006.4082,-797.0
1651668596006.4102,-743.0
1651668596006.412,-862.0
1651668596006.414,-877.0
1651668596006.416,-994.0
1651668596006.418,-933.0
1651668596006.42,-939.0
1651668596006.4219,-818.0
1651668596006.4238,-822.0
1651668596006.4258,-749.0
1651668596006.4277,-836.0
1651668596006.4297,-853.0
1651668596006.4316,-968.0
1651668596006.4336,-925.0
1651668596006.4355,-951.0
1651668596006.4375,-829.0
1651668596006.4395,-827.0
1651668596006.4414,-772.0
1651668596006.4434,-800.0
1651668596006.4453,-765.0
1651668596006.4473,-942.0
1651668596006.4492,-922.0
1651668596006.4512,-947.0
1651668596006.4531,-830.0
1651668596006.455,-829.0
1651668596006.457,-716.0
1651668596006.459,-769.0
1651668596006.461,-769.0
1651668596006.463,-906.0
1651668596006.4648,-906.0
1651668596006.4668,-964.0
1651668596006.4688,-862.0
1651668596006.4707,-840.0
1651668596006.4727,-702.0
1651668596006.4746,-736.0
1651668596006.4766,-729.0
1651668596006.4785,-866.0
1651668596006.4805,-882.0
1651668596006.4824,-958.0
1651668596006.4844,-878.0
1651668596006.4863,-870.0
1651668596006.4883,-734.0
1651668596006.4902,-753.0
1651668596006.4922,-723.0
1651668596006.4941,-858.0
1651668596006.496,-882.0
1651668596006.498,-958.0
1651668596006.5,-858.0
1651668596006.502,-871.0
1651668596006.504,-756.0
1651668596006.5059,-767.0
1651668596006.5078,-717.0
1651668596006.5098,-818.0
1651668596006.5117,-849.0
1651668596006.5137,-966.0
1651668596006.5156,-911.0
1651668596006.5176,-922.0
1651668596006.5195,-785.0
1651668596006.5215,-767.0
1651668596006.5234,-695.0
1651668596006.5254,-796.0
1651668596006.5273,-815.0
1651668596006.5293,-947.0
1651668596006.5312,-900.0
1651668596006.5332,-936.0
1651668596006.5352,-823.0
1651668596006.537,-815.0
1651668596006.539,-714.0
1651668596006.541,-778.0
1651668596006.543,-804.0
1651668596006.545,-969.0
1651668596006.5469,-859.0
1651668596006.5488,-870.0
1651668596006.5508,-895.0
1651668596006.5527,-745.0
1651668596006.5547,-742.0
1651668596006.5566,-681.0
1651668596006.5586,-791.0
1651668596006.5605,-820.0
1651668596006.5625,-937.0
1651668596006.5645,-870.0
1651668596006.5664,-871.0
1651668596006.5684,-750.0
1651668596006.5703,-750.0
1651668596006.5723,-680.0
1651668596006.5742,-775.0
1651668596006.5762,-785.0
1651668596006.5781,-907.0
1651668596006.58,-873.0
1651668596006.582,-909.0
1651668596006.584,-786.0
1651668596006.586,-742.0
1651668596006.588,-637.0
1651668596006.5898,-724.0
1651668596006.5918,-745.0
1651668596006.5938,-891.0
1651668596006.5957,-870.0
1651668596006.5977,-915.0
1651668596006.5996,-812.0
1651668596006.6016,-790.0
1651668596006.6035,-662.0
1651668596006.6055,-713.0
1651668596006.6074,-720.0
1651668596006.6094,-873.0
1651668596006.6113,-880.0
1651668596006.6133,-950.0
1651668596006.6152,-840.0
1651668596006.6172,-802.0
1651668596006.6191,-673.0
1651668596006.621,-706.0
1651668596006.623,-698.0
1651668596006.625,-849.0
1651668596006.627,-873.0
1651668596006.629,-940.0
1651668596006.6309,-838.0
1651668596006.6328,-807.0
1651668596006.6348,-680.0
1651668596006.6367,-718.0
1651668596006.6387,-691.0
1651668596006.6406,-811.0
1651668596006.6426,-847.0
1651668596006.6445,-944.0
1651668596006.6465,-820.0
1651668596006.6484,-860.0
1651668596006.6504,-736.0
1651668596006.6523,-738.0
1651668596006.6543,-680.0
1651668596006.6562,-787.0
1651668596006.6582,-796.0
1651668596006.6602,-910.0
1651668596006.662,-858.0
1651668596006.664,-862.0
1651668596006.666,-731.0
1651668596006.668,-714.0
1651668596006.67,-636.0
1651668596006.6719,-740.0
1651668596006.6738,-776.0
1651668596006.6758,-909.0
1651668596006.6777,-856.0
1651668596006.6797,-873.0
1651668596006.6816,-749.0
1651668596006.6836,-734.0
1651668596006.6855,-633.0
1651668596006.6875,-707.0
1651668596006.6895,-720.0
1651668596006.6914,-867.0
1651668596006.6934,-847.0
1651668596006.6953,-881.0
1651668596006.6973,-768.0
1651668596006.6992,-754.0
1651668596006.7012,-632.0
1651668596006.7031,-685.0
1651668596006.705,-688.0
1651668596006.707,-833.0
1651668596006.709,-840.0
1651668596006.711,-903.0
1651668596006.713,-794.0
1651668596006.7148,-772.0
1651668596006.7168,-652.0
1651668596006.7188,-687.0
1651668596006.7207,-670.0
1651668596006.7227,-811.0
1651668596006.7246,-823.0
1651668596006.7266,-885.0
1651668596006.7285,-802.0
1651668596006.7305,-797.0
1651668596006.7324,-672.0
1651668596006.7344,-698.0
1651668596006.7363,-643.0
1651668596006.7383,-761.0
1651668596006.7402,-819.0
1651668596006.7422,-932.0
1651668596006.7441,-762.0
1651668596006.746,-805.0
1651668596006.748,-804.0
1651668596006.75,-643.0
1651668596006.752,-673.0
1651668596006.754,-676.0
1651668596006.7559,-826.0
1651668596006.7578,-831.0
1651668596006.7598,-893.0
1651668596006.7617,-793.0
1651668596006.7637,-778.0
1651668596006.7656,-640.0
1651668596006.7676,-680.0
1651668596006.7695,-670.0
1651668596006.7715,-808.0
1651668596006.7734,-826.0
1651668596006.7754,-904.0
1651668596006.7773,-815.0
1651668596006.7793,-798.0
1651668596006.7812,-672.0
1651668596006.7832,-692.0
1651668596006.7852,-650.0
1651668596006.787,-764.0
1651668596006.789,-775.0
1651668596006.791,-884.0
1651668596006.793,-808.0
1651668596006.795,-797.0
1651668596006.7969,-673.0
1651668596006.7988,-684.0
1651668596006.8008,-627.0
1651668596006.8027,-728.0
1651668596006.8047,-745.0
1651668596006.8066,-863.0
1651668596006.8086,-822.0
1651668596006.8105,-816.0
1651668596006.8125,-678.0
1651668596006.8145,-676.0
1651668596006.8164,-592.0
1651668596006.8184,-692.0
1651668596006.8203,-732.0
1651668596006.8223,-870.0
1651668596006.8242,-813.0
1651668596006.8262,-837.0
1651668596006.8281,-714.0
1651668596006.83,-685.0
1651668596006.832,-594.0
1651668596006.834,-677.0
1651668596006.836,-691.0
1651668596006.838,-831.0
1651668596006.8398,-836.0
1651668596006.8418,-900.0
1651668596006.8438,-745.0
1651668596006.8457,-659.0
1651668596006.8477,-611.0
1651668596006.8496,-669.0
1651668596006.8516,-662.0
1651668596006.8535,-812.0
1651668596006.8555,-813.0
1651668596006.8574,-877.0
1651668596006.8594,-782.0
1651668596006.8613,-754.0
1651668596006.8633,-634.0
1651668596006.8652,-658.0
1651668596006.8672,-633.0
1651668596006.8691,-771.0
1651668596006.871,-800.0
1651668596006.873,-889.0
1651668596006.875,-793.0
1651668596006.877,-774.0
1651668596006.879,-645.0
1651668596006.8809,-655.0
1651668596006.8828,-616.0
1651668596006.8848,-747.0
1651668596006.8867,-776.0
1651668596006.8887,-877.0
1651668596006.8906,-807.0
1651668596006.8926,-807.0
1651668596006.8945,-666.0
1651668596006.8965,-654.0
1651668596006.8984,-601.0
1651668596006.9004,-727.0
1651668596006.9023,-749.0
1651668596006.9043,-851.0
1651668596006.9062,-802.0
1651668596006.9082,-813.0
1651668596006.9102,-661.0
1651668596006.912,-634.0
1651668596006.914,-553.0
1651668596006.916,-661.0
1651668596006.918,-707.0
1651668596006.92,-845.0
1651668596006.9219,-813.0
1651668596006.9238,-838.0
1651668596006.9258,-699.0
1651668596006.9277,-667.0
1651668596006.9297,-575.0
1651668596006.9316,-645.0
1651668596006.9336,-661.0
1651668596006.9355,-797.0
1651668596006.9375,-796.0
1651668596006.9395,-833.0
1651668596006.9414,-716.0
1651668596006.9434,-696.0
1651668596006.9453,-571.0
1651668596006.9473,-597.0
1651668596006.9492,-666.0
1651668596006.9512,-809.0
1651668596006.9531,-793.0
1651668596006.955,-848.0
1651668596006.957,-735.0
1651668596006.959,-720.0
1651668596006.961,-610.0
1651668596006.963,-641.0
1651668596006.9648,-610.0
1651668596006.9668,-739.0
1651668596006.9688,-760.0
1651668596006.9707,-853.0
1651668596006.9727,-774.0
1651668596006.9746,-761.0
1651668596006.9766,-637.0
1651668596006.9785,-654.0
1651668596006.9805,-608.0
1651668596006.9824,-725.0
1651668596006.9844,-745.0
1651668596006.9863,-863.0
1651668596006.9883,-809.0
1651668596006.9902,-796.0
1651668596006.9922,-652.0
1651668596006.9941,-651.0
1651668596006.996,-589.0
1651668596006.998,-695.0
1651668596007.0,-720.0
1651668596007.002,-830.0
1651668596007.004,-782.0
1651668596007.0059,-811.0
1651668596007.0078,-665.0
1651668596007.0098,-643.0
1651668596007.0117,-570.0
1651668596007.0137,-672.0
1651668596007.0156,-694.0
1651668596007.0176,-822.0
1651668596007.0195,-796.0
1651668596007.0215,-809.0
1651668596007.0234,-676.0
1651668596007.0254,-659.0
1651668596007.0273,-546.0
1651668596007.0293,-612.0
1651668596007.0312,-633.0
1651668596007.0332,-786.0
1651668596007.0352,-754.0
1651668596007.037,-800.0
1651668596007.039,-692.0
1651668596007.041,-673.0
1651668596007.043,-545.0
1651668596007.045,-593.0
1651668596007.0469,-585.0
1651668596007.0488,-718.0
1651668596007.0508,-739.0
1651668596007.0527,-841.0
1651668596007.0547,-661.0
1651668596007.0566,-599.0
1651668596007.0586,-636.0
1651668596007.0605,-565.0
1651668596007.0625,-661.0
1651668596007.0645,-670.0
1651668596007.0664,-787.0
1651668596007.0684,-761.0
1651668596007.0703,-790.0
1651668596007.0723,-652.0
1651668596007.0742,-625.0
1651668596007.0762,-532.0
1651668596007.0781,-619.0
1651668596007.08,-637.0
1651668596007.082,-776.0
1651668596007.084,-769.0
1651668596007.086,-816.0
1651668596007.088,-695.0
1651668596007.0898,-672.0
1651668596007.0918,-561.0
1651668596007.0938,-608.0
1651668596007.0957,-601.0
1651668596007.0977,-750.0
1651668596007.0996,-771.0
1651668596007.1016,-841.0
1651668596007.1035,-729.0
1651668596007.1055,-698.0
1651668596007.1074,-560.0
1651668596007.1094,-593.0
1651668596007.1113,-571.0
1651668596007.1133,-703.0
1651668596007.1152,-728.0
1651668596007.1172,-829.0
1651668596007.1191,-746.0
1651668596007.121,-724.0
1651668596007.123,-585.0
1651668596007.125,-594.0
1651668596007.127,-543.0
1651668596007.129,-669.0
1651668596007.1309,-698.0
1651668596007.1328,-805.0
1651668596007.1348,-734.0
1651668596007.1367,-716.0
1651668596007.1387,-582.0
1651668596007.1406,-582.0
1651668596007.1426,-524.0
1651668596007.1445,-645.0
1651668596007.1465,-683.0
1651668596007.1484,-791.0
1651668596007.1504,-732.0
1651668596007.1523,-742.0
1651668596007.1543,-623.0
1651668596007.1562,-612.0
1651668596007.1582,-527.0
1651668596007.1602,-647.0
1651668596007.162,-621.0
1651668596007.164,-735.0
1651668596007.166,-756.0
1651668596007.168,-789.0
1651668596007.17,-666.0
1651668596007.1719,-630.0
1651668596007.1738,-524.0
1651668596007.1758,-605.0
1651668596007.1777,-619.0
1651668596007.1797,-743.0
1651668596007.1816,-723.0
1651668596007.1836,-787.0
1651668596007.1855,-672.0
1651668596007.1875,-636.0
1651668596007.1895,-535.0
1651668596007.1914,-597.0
1651668596007.1934,-590.0
1651668596007.1953,-727.0
1651668596007.1973,-729.0
1651668596007.1992,-793.0
1651668596007.2012,-692.0
1651668596007.2031,-689.0
1651668596007.205,-550.0
1651668596007.207,-576.0
1651668596007.209,-561.0
1651668596007.211,-691.0
1651668596007.213,-709.0
1651668596007.2148,-796.0
1651668596007.2168,-721.0
1651668596007.2188,-716.0
1651668596007.2207,-564.0
1651668596007.2227,-579.0
1651668596007.2246,-545.0
1651668596007.2266,-661.0
1651668596007.2285,-691.0
1651668596007.2305,-800.0
1651668596007.2324,-729.0
1651668596007.2344,-728.0
1651668596007.2363,-594.0
1651668596007.2383,-594.0
1651668596007.2402,-527.0
1651668596007.2422,-630.0
1651668596007.2441,-651.0
1651668596007.246,-771.0
1651668596007.248,-734.0
1651668596007.25,-745.0
1651668596007.252,-601.0
1651668596007.254,-574.0
1651668596007.2559,-495.0
1651668596007.2578,-597.0
1651668596007.2598,-596.0
1651668596007.2617,-714.0
1651668596007.2637,-779.0
1651668596007.2656,-677.0
1651668596007.2676,-656.0
1651668596007.2695,-514.0
1651668596007.2715,-537.0
1651668596007.2734,-502.0
1651668596007.2754,-623.0
1651668596007.2773,-661.0
1651668596007.2793,-769.0
1651668596007.2812,-696.0
1651668596007.2832,-707.0
1651668596007.2852,-561.0
1651668596007.287,-539.0
1651668596007.289,-486.0
1651668596007.291,-603.0
1651668596007.293,-640.0
1651668596007.295,-756.0
1651668596007.2969,-710.0
1651668596007.2988,-738.0
1651668596007.3008,-612.0
1651668596007.3027,-586.0
1651668596007.3047,-491.0
1651668596007.3066,-576.0
1651668596007.3086,-607.0
1651668596007.3105,-746.0
1651668596007.3125,-728.0
1651668596007.3145,-761.0
1651668596007.3164,-633.0
1651668596007.3184,-599.0
1651668596007.3203,-499.0
1651668596007.3223,-570.0
1651668596007.3242,-579.0
1651668596007.3262,-729.0
1651668596007.3281,-727.0
1651668596007.33,-769.0
1651668596007.332,-651.0
1651668596007.334,-621.0
1651668596007.336,-513.0
1651668596007.338,-561.0
1651668596007.3398,-561.0
1651668596007.3418,-703.0
1651668596007.3438,-706.0
1651668596007.3457,-767.0
1651668596007.3477,-673.0
1651668596007.3496,-669.0
1651668596007.3516,-537.0
1651668596007.3535,-550.0
1651668596007.3555,-525.0
1651668596007.3574,-662.0
1651668596007.3594,-673.0
1651668596007.3613,-768.0
1651668596007.3633,-705.0
1651668596007.3652,-669.0
1651668596007.3672,-506.0
1651668596007.3691,-527.0
1651668596007.371,-512.0
1651668596007.373,-633.0
1651668596007.375,-652.0
1651668596007.377,-750.0
1651668596007.379,-678.0
1651668596007.3809,-672.0
1651668596007.3828,-548.0
1651668596007.3848,-535.0
1651668596007.3867,-497.0
1651668596007.3887,-564.0
1651668596007.3906,-585.0
1651668596007.3926,-749.0
1651668596007.3945,-688.0
1651668596007.3965,-699.0
1651668596007.3984,-557.0
1651668596007.4004,-532.0
1651668596007.4023,-455.0
1651668596007.4043,-565.0
1651668596007.4062,-603.0
1651668596007.4082,-738.0
1651668596007.4102,-712.0
1651668596007.412,-729.0
1651668596007.414,-604.0
1651668596007.416,-600.0
1651668596007.418,-481.0
1651668596007.42,-541.0
1651668596007.4219,-554.0
1651668596007.4238,-696.0
1651668596007.4258,-694.0
1651668596007.4277,-756.0
1651668596007.4297,-651.0
1651668596007.4316,-607.0
1651668596007.4336,-473.0
1651668596007.4355,-534.0
1651668596007.4375,-537.0
1651668596007.4395,-676.0
1651668596007.4414,-680.0
1651668596007.4434,-751.0
1651668596007.4453,-658.0
1651668596007.4473,-622.0
1651668596007.4492,-495.0
1651668596007.4512,-537.0
1651668596007.4531,-514.0
1651668596007.455,-630.0
1651668596007.457,-638.0
1651668596007.459,-747.0
1651668596007.461,-683.0
1651668596007.463,-655.0
1651668596007.4648,-501.0
1651668596007.4668,-506.0
1651668596007.4688,-462.0
1651668596007.4707,-612.0
1651668596007.4727,-647.0
1651668596007.4746,-659.0
1651668596007.4766,-692.0
1651668596007.4785,-691.0
1651668596007.4805,-537.0
1651668596007.4824,-510.0
1651668596007.4844,-450.0
1651668596007.4863,-572.0
1651668596007.4883,-586.0
1651668596007.4902,-710.0
1651668596007.4922,-673.0
1651668596007.4941,-692.0
1651668596007.496,-546.0
1651668596007.498,-537.0
1651668596007.5,-469.0
1651668596007.502,-543.0
1651668596007.504,-550.0
1651668596007.5059,-676.0
1651668596007.5078,-659.0
1651668596007.5098,-692.0
1651668596007.5117,-570.0
1651668596007.5137,-545.0
1651668596007.5156,-441.0
1651668596007.5176,-497.0
1651668596007.5195,-524.0
1651668596007.5215,-677.0
1651668596007.5234,-666.0
1651668596007.5254,-728.0
1651668596007.5273,-614.0
1651668596007.5293,-571.0
1651668596007.5312,-448.0
1651668596007.5332,-494.0
1651668596007.5352,-491.0
1651668596007.537,-640.0
1651668596007.539,-661.0
1651668596007.541,-731.0
1651668596007.543,-619.0
1651668596007.545,-594.0
1651668596007.5469,-470.0
1651668596007.5488,-494.0
1651668596007.5508,-479.0
1651668596007.5527,-619.0
1651668596007.5547,-638.0
1651668596007.5566,-728.0
1651668596007.5586,-648.0
1651668596007.5605,-643.0
1651668596007.5625,-499.0
1651668596007.5645,-513.0
1651668596007.5664,-463.0
1651668596007.5684,-576.0
1651668596007.5703,-605.0
1651668596007.5723,-747.0
1651668596007.5742,-636.0
1651668596007.5762,-600.0
1651668596007.5781,-509.0
1651668596007.58,-502.0
1651668596007.582,-429.0
1651668596007.584,-528.0
1651668596007.586,-571.0
1651668596007.588,-688.0
1651668596007.5898,-643.0
1651668596007.5918,-652.0
1651668596007.5938,-532.0
1651668596007.5957,-527.0
1651668596007.5977,-439.0
1651668596007.5996,-516.0
1651668596007.6016,-538.0
1651668596007.6035,-669.0
1651668596007.6055,-651.0
1651668596007.6074,-689.0
1651668596007.6094,-560.0
1651668596007.6113,-521.0
1651668596007.6133,-414.0
1651668596007.6152,-483.0
1651668596007.6172,-495.0
1651668596007.6191,-656.0
1651668596007.621,-666.0
1651668596007.623,-712.0
1651668596007.625,-583.0
1651668596007.627,-561.0
1651668596007.629,-436.0
1651668596007.6309,-476.0
1651668596007.6328,-480.0
1651668596007.6348,-636.0
1651668596007.6367,-648.0
1651668596007.6387,-720.0
1651668596007.6406,-619.0
1651668596007.6426,-589.0
1651668596007.6445,-452.0
1651668596007.6465,-487.0
1651668596007.6484,-463.0
1651668596007.6504,-601.0
1651668596007.6523,-627.0
1651668596007.6543,-710.0
1651668596007.6562,-633.0
1651668596007.6582,-616.0
1651668596007.6602,-481.0
1651668596007.662,-487.0
1651668596007.664,-435.0
1651668596007.666,-553.0
1651668596007.668,-586.0
1651668596007.67,-721.0
1651668596007.6719,-621.0
1651668596007.6738,-570.0
1651668596007.6758,-579.0
1651668596007.6777,-444.0
1651668596007.6797,-468.0
1651668596007.6816,-468.0
1651668596007.6836,-614.0
1651668596007.6855,-626.0
1651668596007.6875,-710.0
1651668596007.6895,-604.0
1651668596007.6914,-563.0
1651668596007.6934,-440.0
1651668596007.6953,-479.0
1651668596007.6973,-446.0
1651668596007.6992,-575.0
1651668596007.7012,-608.0
1651668596007.7031,-699.0
1651668596007.705,-616.0
1651668596007.707,-592.0
1651668596007.709,-455.0
1651668596007.711,-465.0
1651668596007.713,-411.0
1651668596007.7148,-527.0
1651668596007.7168,-563.0
1651668596007.7188,-687.0
1651668596007.7207,-622.0
1651668596007.7227,-614.0
1651668596007.7246,-472.0
1651668596007.7266,-457.0
1651668596007.7285,-386.0
1651668596007.7305,-510.0
1651668596007.7324,-541.0
1651668596007.7344,-681.0
1651668596007.7363,-640.0
1651668596007.7383,-644.0
1651668596007.7402,-517.0
1651668596007.7422,-506.0
1651668596007.7441,-415.0
1651668596007.746,-513.0
1651668596007.748,-546.0
1651668596007.75,-678.0
1651668596007.752,-645.0
1651668596007.754,-669.0
1651668596007.7559,-534.0
1651668596007.7578,-506.0
1651668596007.7598,-393.0
1651668596007.7617,-459.0
1651668596007.7637,-494.0
1651668596007.7656,-645.0
1651668596007.7676,-647.0
1651668596007.7695,-688.0
1651668596007.7715,-563.0
1651668596007.7734,-582.0
1651668596007.7754,-411.0
1651668596007.7773,-403.0
1651668596007.7793,-557.0
1651668596007.7812,-564.0
1651668596007.7832,-673.0
1651668596007.7852,-627.0
1651668596007.787,-638.0
1651668596007.789,-505.0
1651668596007.791,-486.0
1651668596007.793,-386.0
1651668596007.795,-473.0
1651668596007.7969,-514.0
1651668596007.7988,-637.0
1651668596007.8008,-618.0
1651668596007.8027,-661.0
1651668596007.8047,-524.0
1651668596007.8066,-494.0
1651668596007.8086,-392.0
1651668596007.8105,-444.0
1651668596007.8125,-451.0
1651668596007.8145,-607.0
1651668596007.8164,-605.0
1651668596007.8184,-641.0
1651668596007.8203,-545.0
1651668596007.8223,-527.0
1651668596007.8242,-400.0
1651668596007.8262,-435.0
1651668596007.8281,-419.0
1651668596007.83,-585.0
1651668596007.832,-612.0
1651668596007.834,-688.0
1651668596007.836,-570.0
1651668596007.838,-543.0
1651668596007.8398,-425.0
1651668596007.8418,-454.0
1651668596007.8438,-414.0
1651668596007.8457,-543.0
1651668596007.8477,-590.0
1651668596007.8496,-699.0
1651668596007.8516,-603.0
1651668596007.8535,-575.0
1651668596007.8555,-441.0
1651668596007.8574,-461.0
1651668596007.8594,-411.0
1651668596007.8613,-537.0
1651668596007.8633,-575.0
1651668596007.8652,-672.0
1651668596007.8672,-592.0
1651668596007.8691,-607.0
1651668596007.871,-465.0
1651668596007.873,-462.0
1651668596007.875,-388.0
1651668596007.877,-404.0
1651668596007.879,-570.0
1651668596007.8809,-706.0
1651668596007.8828,-637.0
1651668596007.8848,-638.0
1651668596007.8867,-492.0
1651668596007.8887,-481.0
1651668596007.8906,-396.0
1651668596007.8926,-473.0
1651668596007.8945,-481.0
1651668596007.8965,-612.0
1651668596007.8984,-585.0
1651668596007.9004,-618.0
1651668596007.9023,-494.0
1651668596007.9043,-484.0
1651668596007.9062,-382.0
1651668596007.9082,-435.0
1651668596007.9102,-436.0
1651668596007.912,-572.0
1651668596007.914,-575.0
1651668596007.916,-638.0
1651668596007.918,-525.0
1651668596007.92,-510.0
1651668596007.9219,-392.0
1651668596007.9238,-448.0
1651668596007.9258,-444.0
1651668596007.9277,-581.0
1651668596007.9297,-576.0
1651668596007.9316,-632.0
1651668596007.9336,-537.0
1651668596007.9355,-531.0
1651668596007.9375,-400.0
1651668596007.9395,-415.0
1651668596007.9414,-399.0
1651668596007.9434,-531.0
1651668596007.9453,-563.0
1651668596007.9473,-650.0
1651668596007.9492,-579.0
1651668596007.9512,-587.0
1651668596007.9531,-447.0
1651668596007.955,-436.0
1651668596007.957,-374.0
1651668596007.959,-490.0
1651668596007.961,-519.0
1651668596007.963,-647.0
1651668596007.9648,-587.0
1651668596007.9668,-590.0
1651668596007.9688,-451.0
1651668596007.9707,-433.0
1651668596007.9727,-371.0
1651668596007.9746,-477.0
1651668596007.9766,-505.0
1651668596007.9785,-654.0
1651668596007.9805,-615.0
1651668596007.9824,-534.0
1651668596007.9844,-524.0
1651668596007.9863,-503.0
1651668596007.9883,-396.0
1651668596007.9902,-476.0
1651668596007.9922,-492.0
1651668596007.9941,-622.0
1651668596007.996,-604.0
1651668596007.998,-623.0
1651668596008.0,-490.0
1651668596008.002,-484.0
1651668596008.004,-381.0
1651668596008.0059,-440.0
1651668596008.0078,-441.0
1651668596008.0098,-583.0
1651668596008.0117,-586.0
1651668596008.0137,-641.0
1651668596008.0156,-538.0
1651668596008.0176,-503.0
1651668596008.0195,-370.0
1651668596008.0215,-413.0
1651668596008.0234,-407.0
1651668596008.0254,-556.0
1651668596008.0273,-563.0
1651668596008.0293,-626.0
1651668596008.0312,-530.0
1651668596008.0332,-517.0
1651668596008.0352,-388.0
1651668596008.037,-400.0
1651668596008.039,-382.0
1651668596008.041,-516.0
1651668596008.043,-537.0
1651668596008.045,-640.0
1651668596008.0469,-565.0
1651668596008.0488,-552.0
1651668596008.0508,-390.0
1651668596008.0527,-396.0
1651668596008.0547,-355.0
1651668596008.0566,-497.0
1651668596008.0586,-537.0
1651668596008.0605,-633.0
1651668596008.0625,-568.0
1651668596008.0645,-575.0
1651668596008.0664,-436.0
1651668596008.0684,-413.0
1651668596008.0703,-339.0
1651668596008.0723,-452.0
1651668596008.0742,-488.0
1651668596008.0762,-632.0
1651668596008.0781,-638.0
1651668596008.08,-583.0
1651668596008.082,-446.0
1651668596008.084,-461.0
1651668596008.086,-368.0
1651668596008.088,-457.0
1651668596008.0898,-459.0
1651668596008.0918,-581.0
1651668596008.0938,-572.0
1651668596008.0957,-616.0
1651668596008.0977,-480.0
1651668596008.0996,-448.0
1651668596008.1016,-353.0
1651668596008.1035,-424.0
1651668596008.1055,-421.0
1651668596008.1074,-565.0
1651668596008.1094,-563.0
1651668596008.1113,-605.0
1651668596008.1133,-506.0
1651668596008.1152,-491.0
1651668596008.1172,-370.0
1651668596008.1191,-404.0
1651668596008.121,-384.0
1651668596008.123,-517.0
1651668596008.125,-543.0
1651668596008.127,-622.0
1651668596008.129,-530.0
1651668596008.1309,-505.0
1651668596008.1328,-352.0
1651668596008.1348,-368.0
1651668596008.1367,-352.0
1651668596008.1387,-495.0
1651668596008.1406,-528.0
1651668596008.1426,-623.0
1651668596008.1445,-539.0
1651668596008.1465,-516.0
1651668596008.1484,-371.0
1651668596008.1504,-373.0
1651668596008.1523,-331.0
1651668596008.1543,-470.0
1651668596008.1562,-513.0
1651668596008.1582,-636.0
1651668596008.1602,-559.0
1651668596008.162,-553.0
1651668596008.164,-429.0
1651668596008.166,-414.0
1651668596008.168,-330.0
1651668596008.17,-435.0
1651668596008.1719,-469.0
1651668596008.1738,-601.0
1651668596008.1758,-557.0
1651668596008.1777,-567.0
1651668596008.1797,-451.0
1651668596008.1816,-448.0
1651668596008.1836,-260.0
1651668596008.1855,-397.0
1651668596008.1875,-539.0
1651668596008.1895,-535.0
1651668596008.1914,-627.0
1651668596008.1934,-541.0
1651668596008.1953,-534.0
1651668596008.1973,-403.0
1651668596008.1992,-406.0
1651668596008.2012,-352.0
1651668596008.2031,-459.0
1651668596008.205,-494.0
1651668596008.207,-630.0
1651668596008.209,-579.0
1651668596008.211,-567.0
1651668596008.213,-419.0
1651668596008.2148,-401.0
1651668596008.2168,-324.0
1651668596008.2188,-424.0
1651668596008.2207,-452.0
1651668596008.2227,-594.0
1651668596008.2246,-556.0
1651668596008.2266,-565.0
1651668596008.2285,-440.0
1651668596008.2305,-432.0
1651668596008.2324,-322.0
1651668596008.2344,-388.0
1651668596008.2363,-410.0
1651668596008.2383,-553.0
1651668596008.2402,-538.0
1651668596008.2422,-568.0
1651668596008.2441,-439.0
1651668596008.246,-415.0
1651668596008.248,-304.0
1651668596008.25,-367.0
1651668596008.252,-392.0
1651668596008.254,-521.0
1651668596008.2559,-512.0
1651668596008.2578,-582.0
1651668596008.2598,-484.0
1651668596008.2617,-443.0
1651668596008.2637,-327.0
1651668596008.2656,-379.0
1651668596008.2676,-373.0
1651668596008.2695,-510.0
1651668596008.2715,-516.0
1651668596008.2734,-611.0
1651668596008.2754,-517.0
1651668596008.2773,-480.0
1651668596008.2793,-335.0
1651668596008.2812,-326.0
1651668596008.2832,-373.0
1651668596008.2852,-499.0
1651668596008.287,-494.0
1651668596008.289,-600.0
1651668596008.291,-525.0
1651668596008.293,-508.0
1651668596008.295,-360.0
1651668596008.2969,-363.0
1651668596008.2988,-328.0
1651668596008.3008,-463.0
1651668596008.3027,-497.0
1651668596008.3047,-600.0
1651668596008.3066,-535.0
1651668596008.3086,-539.0
1651668596008.3105,-404.0
1651668596008.3125,-388.0
1651668596008.3145,-317.0
1651668596008.3164,-421.0
1651668596008.3184,-437.0
1651668596008.3203,-568.0
1651668596008.3223,-534.0
1651668596008.3242,-564.0
1651668596008.3262,-439.0
1651668596008.3281,-406.0
1651668596008.33,-305.0
1651668596008.332,-395.0
1651668596008.334,-410.0
1651668596008.336,-537.0
1651668596008.338,-503.0
1651668596008.3398,-541.0
1651668596008.3418,-428.0
1651668596008.3438,-408.0
1651668596008.3457,-298.0
1651668596008.3477,-362.0
1651668596008.3496,-370.0
1651668596008.3516,-514.0
1651668596008.3535,-527.0
1651668596008.3555,-574.0
1651668596008.3574,-446.0
1651668596008.3594,-425.0
1651668596008.3613,-297.0
1651668596008.3633,-345.0
1651668596008.3652,-359.0
1651668596008.3672,-502.0
1651668596008.3691,-519.0
1651668596008.371,-589.0
1651668596008.373,-483.0
1651668596008.375,-458.0
1651668596008.377,-326.0
1651668596008.379,-346.0
1651668596008.3809,-333.0
1651668596008.3828,-476.0
1651668596008.3848,-495.0
1651668596008.3867,-629.0
1651668596008.3887,-509.0
1651668596008.3906,-472.0
1651668596008.3926,-384.0
1651668596008.3945,-379.0
1651668596008.3965,-330.0
1651668596008.3984,-432.0
1651668596008.4004,-450.0
1651668596008.4023,-583.0
1651668596008.4043,-524.0
1651668596008.4062,-520.0
1651668596008.4082,-389.0
1651668596008.4102,-382.0
1651668596008.412,-305.0
1651668596008.414,-403.0
1651668596008.416,-429.0
1651668596008.418,-567.0
1651668596008.42,-537.0
1651668596008.4219,-561.0
1651668596008.4238,-417.0
1651668596008.4258,-385.0
1651668596008.4277,-295.0
1651668596008.4297,-382.0
1651668596008.4316,-397.0
1651668596008.4336,-535.0
1651668596008.4355,-528.0
1651668596008.4375,-568.0
1651668596008.4395,-437.0
1651668596008.4414,-396.0
1651668596008.4434,-279.0
1651668596008.4453,-341.0
1651668596008.4473,-356.0
1651668596008.4492,-509.0
1651668596008.4512,-494.0
1651668596008.4531,-545.0
1651668596008.455,-443.0
1651668596008.457,-408.0
1651668596008.459,-277.0
1651668596008.461,-327.0
1651668596008.463,-335.0
1651668596008.4648,-492.0
1651668596008.4668,-503.0
1651668596008.4688,-557.0
1651668596008.4707,-440.0
1651668596008.4727,-429.0
1651668596008.4746,-304.0
1651668596008.4766,-326.0
1651668596008.4785,-295.0
1651668596008.4805,-454.0
1651668596008.4824,-497.0
1651668596008.4844,-571.0
1651668596008.4863,-494.0
1651668596008.4883,-494.0
1651668596008.4902,-359.0
1651668596008.4922,-392.0
1651668596008.4941,-271.0
1651668596008.496,-363.0
1651668596008.498,-548.0
1651668596008.5,-543.0
1651668596008.502,-589.0
1651668596008.504,-466.0
1651668596008.5059,-435.0
1651668596008.5078,-313.0
1651668596008.5098,-355.0
1651668596008.5117,-364.0
1651668596008.5137,-502.0
1651668596008.5156,-494.0
1651668596008.5176,-571.0
1651668596008.5195,-476.0
1651668596008.5215,-454.0
1651668596008.5234,-322.0
1651668596008.5254,-346.0
1651668596008.5273,-323.0
1651668596008.5293,-452.0
1651668596008.5312,-476.0
1651668596008.5332,-561.0
1651668596008.5352,-468.0
1651668596008.537,-480.0
1651668596008.539,-404.0
1651668596008.541,-276.0
1651668596008.543,-338.0
1651668596008.545,-342.0
1651668596008.5469,-491.0
1651668596008.5488,-499.0
1651668596008.5508,-563.0
1651668596008.5527,-457.0
1651668596008.5547,-425.0
1651668596008.5566,-279.0
1651668596008.5586,-312.0
1651668596008.5605,-328.0
1651668596008.5625,-465.0
1651668596008.5645,-476.0
1651668596008.5664,-548.0
1651668596008.5684,-461.0
1651668596008.5703,-432.0
1651668596008.5723,-300.0
1651668596008.5742,-338.0
1651668596008.5762,-312.0
1651668596008.5781,-437.0
1651668596008.58,-466.0
1651668596008.582,-561.0
1651668596008.584,-483.0
1651668596008.586,-463.0
1651668596008.588,-328.0
1651668596008.5898,-345.0
1651668596008.5918,-295.0
1651668596008.5938,-362.0
1651668596008.5957,-452.0
1651668596008.5977,-488.0
1651668596008.5996,-552.0
1651668596008.6016,-451.0
1651668596008.6035,-428.0
1651668596008.6055,-298.0
1651668596008.6074,-328.0
1651668596008.6094,-317.0
1651668596008.6113,-461.0
1651668596008.6133,-480.0
1651668596008.6152,-560.0
1651668596008.6172,-469.0
1651668596008.6191,-451.0
1651668596008.621,-311.0
1651668596008.623,-331.0
1651668596008.625,-311.0
1651668596008.627,-425.0
1651668596008.629,-448.0
1651668596008.6309,-546.0
1651668596008.6328,-469.0
1651668596008.6348,-458.0
1651668596008.6367,-331.0
1651668596008.6387,-328.0
1651668596008.6406,-265.0
1651668596008.6426,-390.0
1651668596008.6445,-425.0
1651668596008.6465,-524.0
1651668596008.6484,-468.0
1651668596008.6504,-492.0
1651668596008.6523,-367.0
1651668596008.6543,-353.0
1651668596008.6562,-272.0
1651668596008.6582,-367.0
1651668596008.6602,-388.0
1651668596008.662,-499.0
1651668596008.664,-466.0
1651668596008.666,-501.0
1651668596008.668,-377.0
1651668596008.67,-356.0
1651668596008.6719,-258.0
1651668596008.6738,-323.0
1651668596008.6758,-339.0
1651668596008.6777,-483.0
1651668596008.6797,-483.0
1651668596008.6816,-516.0
1651668596008.6836,-385.0
1651668596008.6855,-373.0
1651668596008.6875,-264.0
1651668596008.6895,-350.0
1651668596008.6914,-280.0
1651668596008.6934,-395.0
1651668596008.6953,-556.0
1651668596008.6973,-495.0
1651668596008.6992,-501.0
1651668596008.7012,-353.0
1651668596008.7031,-319.0
1651668596008.705,-244.0
1651668596008.707,-355.0
1651668596008.709,-395.0
1651668596008.711,-513.0
1651668596008.713,-480.0
1651668596008.7148,-501.0
1651668596008.7168,-364.0
1651668596008.7188,-346.0
1651668596008.7207,-264.0
1651668596008.7227,-344.0
1651668596008.7246,-359.0
1651668596008.7266,-499.0
1651668596008.7285,-476.0
1651668596008.7305,-520.0
1651668596008.7324,-408.0
1651668596008.7344,-390.0
1651668596008.7363,-282.0
1651668596008.7383,-324.0
1651668596008.7402,-306.0
1651668596008.7422,-450.0
1651668596008.7441,-466.0
1651668596008.746,-531.0
1651668596008.748,-424.0
1651668596008.75,-403.0
1651668596008.752,-271.0
1651668596008.754,-306.0
1651668596008.7559,-293.0
1651668596008.7578,-436.0
1651668596008.7598,-437.0
1651668596008.7617,-517.0
1651668596008.7637,-441.0
1651668596008.7656,-414.0
1651668596008.7676,-280.0
1651668596008.7695,-309.0
1651668596008.7715,-269.0
1651668596008.7734,-390.0
1651668596008.7754,-415.0
1651668596008.7773,-525.0
1651668596008.7793,-433.0
1651668596008.7812,-425.0
1651668596008.7832,-298.0
1651668596008.7852,-308.0
1651668596008.787,-247.0
1651668596008.789,-379.0
1651668596008.791,-390.0
1651668596008.793,-441.0
1651668596008.795,-479.0
1651668596008.7969,-400.0
1651668596008.7988,-397.0
1651668596008.8008,-283.0
1651668596008.8027,-313.0
1651668596008.8047,-297.0
1651668596008.8066,-435.0
1651668596008.8086,-441.0
1651668596008.8105,-537.0
1651668596008.8125,-451.0
1651668596008.8145,-426.0
1651668596008.8164,-298.0
1651668596008.8184,-316.0
1651668596008.8203,-286.0
1651668596008.8223,-404.0
1651668596008.8242,-421.0
1651668596008.8262,-512.0
1651668596008.8281,-437.0
1651668596008.83,-454.0
1651668596008.832,-338.0
1651668596008.834,-331.0
1651668596008.836,-260.0
1651668596008.838,-366.0
1651668596008.8398,-390.0
1651668596008.8418,-510.0
1651668596008.8438,-477.0
1651668596008.8457,-488.0
1651668596008.8477,-345.0
1651668596008.8496,-334.0
1651668596008.8516,-251.0
1651668596008.8535,-338.0
1651668596008.8555,-360.0
1651668596008.8574,-490.0
1651668596008.8594,-454.0
1651668596008.8613,-479.0
1651668596008.8633,-352.0
1651668596008.8652,-327.0
1651668596008.8672,-233.0
1651668596008.8691,-309.0
1651668596008.871,-322.0
1651668596008.873,-458.0
1651668596008.875,-437.0
1651668596008.877,-481.0
1651668596008.879,-382.0
1651668596008.8809,-363.0
1651668596008.8828,-238.0
1651668596008.8848,-298.0
1651668596008.8867,-297.0
1651668596008.8887,-428.0
1651668596008.8906,-419.0
1651668596008.8926,-490.0
1651668596008.8945,-407.0
1651668596008.8965,-413.0
1651668596008.8984,-203.0
1651668596008.9004,-202.0
1651668596008.9023,-339.0
1651668596008.9043,-367.0
1651668596008.9062,-492.0
1651668596008.9082,-454.0
1651668596008.9102,-470.0
1651668596008.912,-349.0
1651668596008.914,-335.0
1651668596008.916,-239.0
